'Elapsed time','ECG'
'seconds','mV'
0.000,0.044
0.005,0.100
0.010,0.107
0.015,0.110
0.020,0.092
0.025,0.077
0.030,0.094
0.035,0.090
0.040,0.078
0.045,0.092
0.050,0.084
0.055,0.065
0.060,0.070
0.065,0.060
0.070,0.040
0.075,0.017
0.080,-0.004
0.085,-0.012
0.090,-0.012
0.095,0.009
0.100,-0.008
0.105,-0.075
0.110,-0.105
0.115,-0.083
0.120,-0.033
0.125,0.007
0.130,0.024
0.135,0.043
0.140,0.044
0.145,0.044
0.150,0.061
0.155,0.087
0.160,0.109
0.165,0.104
0.170,0.093
0.175,0.087
0.180,0.078
0.185,0.073
0.190,0.064
0.195,0.063
0.200,0.060
0.205,0.053
0.210,0.048
0.215,0.040
0.220,0.041
0.225,0.036
0.230,0.024
0.235,0.020
0.240,0.016
0.245,0.036
0.250,0.040
0.255,-0.035
0.260,-0.207
0.265,-0.526
0.270,-0.988
0.275,-1.466
0.280,-1.582
0.285,-1.144
0.290,-0.475
0.295,0.170
0.300,0.573
0.305,0.645
0.310,0.548
0.315,0.359
0.320,0.229
0.325,0.228
0.330,0.224
0.335,0.204
0.340,0.207
0.345,0.208
0.350,0.189
0.355,0.180
0.360,0.184
0.365,0.171
0.370,0.160
0.375,0.154
0.380,0.147
0.385,0.142
0.390,0.129
0.395,0.121
0.400,0.111
0.405,0.105
0.410,0.106
0.415,0.096
0.420,0.090
0.425,0.083
0.430,0.074
0.435,0.065
0.440,0.054
0.445,0.050
0.450,0.047
0.455,0.040
0.460,0.037
0.465,0.033
0.470,0.032
0.475,0.025
0.480,0.018
0.485,0.011
0.490,-0.003
0.495,-0.007
0.500,-0.015
0.505,-0.022
0.510,-0.025
0.515,-0.035
0.520,-0.037
0.525,-0.044
0.530,-0.053
0.535,-0.057
0.540,-0.070
0.545,-0.078
0.550,-0.083
0.555,-0.091
0.560,-0.095
0.565,-0.101
0.570,-0.099
0.575,-0.096
0.580,-0.085
0.585,-0.063
0.590,-0.046
0.595,-0.018
0.600,0.008
0.605,0.028
0.610,0.051
0.615,0.065
0.620,0.080
0.625,0.090
0.630,0.095
0.635,0.102
0.640,0.096
0.645,0.094
0.650,0.094
0.655,0.093
0.660,0.092
0.665,0.083
0.670,0.079
0.675,0.070
0.680,0.063
0.685,0.062
0.690,0.050
0.695,0.047
0.700,0.043
0.705,0.036
0.710,0.036
0.715,0.031
0.720,0.034
0.725,0.030
0.730,0.025
0.735,0.023
0.740,0.013
0.745,0.013
0.750,0.010
0.755,0.008
0.760,0.010
0.765,0.001
0.770,-0.002
0.775,-0.007
0.780,-0.009
0.785,-0.003
0.790,-0.005
0.795,-0.002
0.800,-0.001
0.805,-0.003
0.810,-0.001
0.815,-0.002
0.820,0.001
0.825,-0.003
0.830,-0.009
0.835,-0.008
0.840,-0.013
0.845,-0.010
0.850,-0.013
0.855,-0.014
0.860,-0.014
0.865,-0.016
0.870,-0.011
0.875,-0.016
0.880,-0.016
0.885,-0.011
0.890,-0.020
0.895,-0.019
0.900,-0.017
0.905,-0.018
0.910,-0.014
0.915,-0.017
0.920,-0.018
0.925,-0.024
0.930,-0.028
0.935,-0.026
0.940,-0.030
0.945,-0.029
0.950,-0.030
0.955,-0.028
0.960,-0.024
0.965,-0.028
0.970,-0.023
0.975,-0.025
0.980,-0.027
0.985,-0.028
0.990,-0.040
0.995,-0.046
1.000,-0.065
1.005,-0.092
1.010,-0.108
1.015,-0.108
1.020,-0.081
1.025,-0.069
1.030,-0.103
1.035,-0.150
1.040,-0.163
1.045,-0.124
1.050,-0.074
1.055,-0.037
1.060,-0.014
1.065,-0.008
1.070,-0.011
1.075,-0.017
1.080,0.007
1.085,0.043
1.090,0.052
1.095,0.055
1.100,0.055
1.105,0.050
1.110,0.042
1.115,0.035
1.120,0.038
1.125,0.032
1.130,0.027
1.135,0.028
1.140,0.019
1.145,0.021
1.150,0.021
1.155,0.016
1.160,0.009
1.165,-0.003
1.170,0.004
1.175,0.017
1.180,0.003
1.185,-0.086
1.190,-0.285
1.195,-0.618
1.200,-1.083
1.205,-1.497
1.210,-1.484
1.215,-0.976
1.220,-0.311
1.225,0.272
1.230,0.598
1.235,0.615
1.240,0.470
1.245,0.290
1.250,0.210
1.255,0.247
1.260,0.251
1.265,0.214
1.270,0.216
1.275,0.206
1.280,0.178
1.285,0.180
1.290,0.181
1.295,0.175
1.300,0.170
1.305,0.169
1.310,0.158
1.315,0.138
1.320,0.135
1.325,0.127
1.330,0.118
1.335,0.120
1.340,0.109
1.345,0.095
1.350,0.081
1.355,0.079
1.360,0.090
1.365,0.091
1.370,0.092
1.375,0.082
1.380,0.073
1.385,0.066
1.390,0.048
1.395,0.041
1.400,0.037
1.405,0.029
1.410,0.022
1.415,0.019
1.420,0.024
1.425,0.016
1.430,0.002
1.435,-0.009
1.440,-0.021
1.445,-0.026
1.450,-0.036
1.455,-0.044
1.460,-0.046
1.465,-0.049
1.470,-0.052
1.475,-0.064
1.480,-0.070
1.485,-0.073
1.490,-0.086
1.495,-0.092
1.500,-0.098
1.505,-0.099
1.510,-0.085
1.515,-0.065
1.520,-0.034
1.525,-0.010
1.530,0.012
1.535,0.040
1.540,0.060
1.545,0.083
1.550,0.096
1.555,0.100
1.560,0.103
1.565,0.098
1.570,0.099
1.575,0.101
1.580,0.106
1.585,0.108
1.590,0.094
1.595,0.084
1.600,0.078
1.605,0.077
1.610,0.080
1.615,0.076
1.620,0.070
1.625,0.055
1.630,0.050
1.635,0.054
1.640,0.050
1.645,0.047
1.650,0.037
1.655,0.027
1.660,0.022
1.665,0.025
1.670,0.030
1.675,0.019
1.680,0.015
1.685,0.018
1.690,0.013
1.695,0.012
1.700,0.004
1.705,-0.001
1.710,0.001
1.715,-0.004
1.720,-0.001
1.725,0.001
1.730,0.002
1.735,-0.004
1.740,-0.014
1.745,-0.013
1.750,-0.006
1.755,0.005
1.760,0.004
1.765,-0.005
1.770,-0.005
1.775,-0.009
1.780,-0.009
1.785,-0.006
1.790,-0.009
1.795,-0.009
1.800,-0.019
1.805,-0.024
1.810,-0.017
1.815,-0.010
1.820,-0.002
1.825,-0.005
1.830,-0.006
1.835,-0.008
1.840,-0.020
1.845,-0.028
1.850,-0.032
1.855,-0.027
1.860,-0.018
1.865,-0.016
1.870,-0.016
1.875,-0.023
1.880,-0.027
1.885,-0.023
1.890,-0.019
1.895,-0.019
1.900,-0.028
1.905,-0.040
1.910,-0.061
1.915,-0.082
1.920,-0.088
1.925,-0.092
1.930,-0.075
1.935,-0.056
1.940,-0.086
1.945,-0.137
1.950,-0.158
1.955,-0.137
1.960,-0.093
1.965,-0.054
1.970,-0.035
1.975,-0.029
1.980,-0.019
1.985,-0.009
1.990,0.021
1.995,0.057
2.000,0.059
2.005,0.054
2.010,0.057
2.015,0.062
2.020,0.063
2.025,0.047
2.030,0.045
2.035,0.048
2.040,0.040
2.045,0.034
2.050,0.016
2.055,0.005
2.060,0.000
2.065,0.000
2.070,0.016
2.075,0.018
2.080,0.023
2.085,0.038
2.090,0.048
2.095,0.016
2.100,-0.129
2.105,-0.414
2.110,-0.857
2.115,-1.372
2.120,-1.598
2.125,-1.278
2.130,-0.619
2.135,0.058
2.140,0.514
2.145,0.651
2.150,0.596
2.155,0.430
2.160,0.257
2.165,0.217
2.170,0.226
2.175,0.207
2.180,0.219
2.185,0.225
2.190,0.199
2.195,0.184
2.200,0.173
2.205,0.164
2.210,0.154
2.215,0.143
2.220,0.135
2.225,0.120
2.230,0.116
2.235,0.113
2.240,0.100
2.245,0.097
2.250,0.092
2.255,0.088
2.260,0.085
2.265,0.080
2.270,0.081
2.275,0.072
2.280,0.071
2.285,0.072
2.290,0.061
2.295,0.056
2.300,0.050
2.305,0.049
2.310,0.044
2.315,0.031
2.320,0.024
2.325,0.015
2.330,0.014
2.335,0.012
2.340,0.004
2.345,0.001
2.350,-0.008
2.355,-0.013
2.360,-0.017
2.365,-0.030
2.370,-0.034
2.375,-0.042
2.380,-0.045
2.385,-0.044
2.390,-0.056
2.395,-0.063
2.400,-0.069
2.405,-0.077
2.410,-0.086
2.415,-0.092
2.420,-0.079
2.425,-0.064
2.430,-0.040
2.435,-0.010
2.440,0.008
2.445,0.026
2.450,0.040
2.455,0.055
2.460,0.073
2.465,0.087
2.470,0.099
2.475,0.096
2.480,0.096
2.485,0.098
2.490,0.091
2.495,0.091
2.500,0.087
2.505,0.083
2.510,0.078
2.515,0.073
2.520,0.073
2.525,0.064
2.530,0.060
2.535,0.060
2.540,0.053
2.545,0.054
2.550,0.044
2.555,0.034
2.560,0.027
2.565,0.024
2.570,0.027
2.575,0.018
2.580,0.015
2.585,0.017
2.590,0.014
2.595,0.016
2.600,0.009
2.605,0.004
2.610,0.002
2.615,-0.002
2.620,0.007
2.625,0.012
2.630,0.015
2.635,0.013
2.640,0.006
2.645,0.009
2.650,0.009
2.655,0.008
2.660,0.001
2.665,-0.007
2.670,-0.006
2.675,-0.013
2.680,-0.011
2.685,0.001
2.690,0.006
2.695,0.010
2.700,0.004
2.705,0.003
2.710,0.007
2.715,0.002
2.720,-0.002
2.725,-0.015
2.730,-0.016
2.735,-0.009
2.740,-0.007
2.745,-0.001
2.750,-0.003
2.755,-0.004
2.760,-0.006
2.765,-0.010
2.770,-0.009
2.775,-0.018
2.780,-0.023
2.785,-0.028
2.790,-0.044
2.795,-0.066
2.800,-0.093
2.805,-0.098
2.810,-0.083
2.815,-0.062
2.820,-0.069
2.825,-0.127
2.830,-0.155
2.835,-0.132
2.840,-0.093
2.845,-0.047
2.850,-0.026
2.855,-0.012
2.860,-0.005
2.865,-0.011
2.870,0.002
2.875,0.029
2.880,0.052
2.885,0.055
2.890,0.049
2.895,0.050
2.900,0.045
2.905,0.045
2.910,0.047
2.915,0.045
2.920,0.043
2.925,0.030
2.930,0.026
2.935,0.020
2.940,0.007
2.945,0.005
2.950,0.000
2.955,-0.002
2.960,-0.001
2.965,0.016
2.970,0.032
2.975,-0.028
2.980,-0.192
2.985,-0.493
2.990,-0.944
2.995,-1.435
3.000,-1.625
3.005,-1.252
3.010,-0.579
3.015,0.093
3.020,0.552
3.025,0.652
3.030,0.550
3.035,0.363
3.040,0.217
3.045,0.221
3.050,0.233
3.055,0.211
3.060,0.216
3.065,0.225
3.070,0.212
3.075,0.193
3.080,0.192
3.085,0.180
3.090,0.161
3.095,0.159
3.100,0.149
3.105,0.140
3.110,0.135
3.115,0.131
3.120,0.129
3.125,0.116
3.130,0.111
3.135,0.102
3.140,0.090
3.145,0.091
3.150,0.086
3.155,0.080
3.160,0.072
3.165,0.064
3.170,0.063
3.175,0.053
3.180,0.048
3.185,0.045
3.190,0.042
3.195,0.041
3.200,0.030
3.205,0.024
3.210,0.017
3.215,0.008
3.220,0.005
3.225,-0.009
3.230,-0.016
3.235,-0.022
3.240,-0.034
3.245,-0.041
3.250,-0.054
3.255,-0.063
3.260,-0.072
3.265,-0.081
3.270,-0.080
3.275,-0.087
3.280,-0.088
3.285,-0.092
3.290,-0.100
3.295,-0.096
3.300,-0.088
3.305,-0.067
3.310,-0.046
3.315,-0.020
3.320,0.012
3.325,0.029
3.330,0.052
3.335,0.071
3.340,0.079
3.345,0.090
3.350,0.093
3.355,0.097
3.360,0.096
3.365,0.096
3.370,0.101
3.375,0.094
3.380,0.092
3.385,0.086
3.390,0.080
3.395,0.083
3.400,0.073
3.405,0.068
3.410,0.063
3.415,0.059
3.420,0.062
3.425,0.049
3.430,0.037
3.435,0.029
3.440,0.020
3.445,0.017
3.450,0.012
3.455,0.013
3.460,0.012
3.465,0.010
3.470,0.014
3.475,0.007
3.480,0.008
3.485,0.012
3.490,0.013
3.495,0.014
3.500,0.004
3.505,-0.001
3.510,-0.006
3.515,-0.011
3.520,-0.007
3.525,-0.010
3.530,-0.005
3.535,-0.005
3.540,-0.011
3.545,-0.008
3.550,-0.005
3.555,0.004
3.560,0.005
3.565,0.005
3.570,0.005
3.575,-0.010
3.580,-0.013
3.585,-0.011
3.590,-0.013
3.595,-0.012
3.600,-0.023
3.605,-0.025
3.610,-0.018
3.615,-0.009
3.620,0.000
3.625,-0.011
3.630,-0.018
3.635,-0.018
3.640,-0.018
3.645,-0.015
3.650,-0.019
3.655,-0.021
3.660,-0.027
3.665,-0.032
3.670,-0.029
3.675,-0.026
3.680,-0.015
3.685,-0.016
3.690,-0.025
3.695,-0.035
3.700,-0.053
3.705,-0.067
3.710,-0.086
3.715,-0.102
3.720,-0.096
3.725,-0.084
3.730,-0.085
3.735,-0.128
3.740,-0.172
3.745,-0.157
3.750,-0.105
3.755,-0.050
3.760,-0.026
3.765,-0.016
3.770,-0.005
3.775,-0.013
3.780,0.000
3.785,0.024
3.790,0.035
3.795,0.044
3.800,0.049
3.805,0.060
3.810,0.063
3.815,0.050
3.820,0.043
3.825,0.033
3.830,0.025
3.835,0.022
3.840,0.018
3.845,0.017
3.850,0.012
3.855,0.009
3.860,0.001
3.865,-0.004
3.870,-0.001
3.875,0.003
3.880,0.022
3.885,-0.006
3.890,-0.134
3.895,-0.376
3.900,-0.778
3.905,-1.281
3.910,-1.594
3.915,-1.382
3.920,-0.758
3.925,-0.073
3.930,0.454
3.935,0.662
3.940,0.623
3.945,0.457
3.950,0.267
3.955,0.215
3.960,0.223
3.965,0.199
3.970,0.195
3.975,0.203
3.980,0.198
3.985,0.186
3.990,0.184
3.995,0.174
4.000,0.154
4.005,0.154
4.010,0.150
4.015,0.143
4.020,0.142
4.025,0.132
4.030,0.122
4.035,0.110
4.040,0.106
4.045,0.104
4.050,0.096
4.055,0.094
4.060,0.086
4.065,0.082
4.070,0.084
4.075,0.073
4.080,0.069
4.085,0.062
4.090,0.052
4.095,0.044
4.100,0.036
4.105,0.038
4.110,0.033
4.115,0.027
4.120,0.016
4.125,-0.004
4.130,-0.007
4.135,-0.007
4.140,-0.004
4.145,-0.005
4.150,-0.024
4.155,-0.032
4.160,-0.040
4.165,-0.044
4.170,-0.043
4.175,-0.056
4.180,-0.060
4.185,-0.070
4.190,-0.082
4.195,-0.083
4.200,-0.090
4.205,-0.091
4.210,-0.085
4.215,-0.064
4.220,-0.035
4.225,-0.017
4.230,0.008
4.235,0.030
4.240,0.047
4.245,0.058
4.250,0.066
4.255,0.082
4.260,0.087
4.265,0.093
4.270,0.106
4.275,0.103
4.280,0.099
4.285,0.093
4.290,0.088
4.295,0.089
4.300,0.078
4.305,0.071
4.310,0.064
4.315,0.060
4.320,0.059
4.325,0.054
4.330,0.057
4.335,0.055
4.340,0.050
4.345,0.048
4.350,0.035
4.355,0.031
4.360,0.025
4.365,0.019
4.370,0.020
4.375,0.012
4.380,0.013
4.385,0.014
4.390,0.012
4.395,0.011
4.400,0.005
4.405,0.002
4.410,-0.006
4.415,-0.007
4.420,0.000
4.425,-0.005
4.430,-0.005
4.435,-0.004
4.440,-0.004
4.445,0.005
4.450,0.010
4.455,0.012
4.460,0.000
4.465,-0.005
4.470,-0.001
4.475,-0.002
4.480,0.005
4.485,0.001
4.490,-0.008
4.495,-0.010
4.500,-0.012
4.505,-0.004
4.510,-0.003
4.515,-0.009
4.520,-0.007
4.525,-0.010
4.530,-0.011
4.535,-0.014
4.540,-0.011
4.545,-0.002
4.550,0.001
4.555,-0.002
4.560,-0.024
4.565,-0.052
4.570,-0.071
4.575,-0.083
4.580,-0.074
4.585,-0.057
4.590,-0.070
4.595,-0.127
4.600,-0.172
4.605,-0.154
4.610,-0.106
4.615,-0.055
4.620,-0.022
4.625,-0.016
4.630,-0.014
4.635,-0.015
4.640,0.005
4.645,0.044
4.650,0.062
4.655,0.067
4.660,0.062
4.665,0.057
4.670,0.050
4.675,0.035
4.680,0.038
4.685,0.037
4.690,0.028
4.695,0.024
4.700,0.024
4.705,0.026
4.710,0.016
4.715,0.010
4.720,0.006
4.725,-0.004
4.730,0.006
4.735,0.026
4.740,0.039
4.745,-0.010
4.750,-0.178
4.755,-0.478
4.760,-0.932
4.765,-1.435
4.770,-1.615
4.775,-1.239
4.780,-0.556
4.785,0.121
4.790,0.557
4.795,0.655
4.800,0.572
4.805,0.396
4.810,0.239
4.815,0.224
4.820,0.229
4.825,0.199
4.830,0.205
4.835,0.207
4.840,0.194
4.845,0.188
4.850,0.183
4.855,0.176
4.860,0.162
4.865,0.155
4.870,0.148
4.875,0.136
4.880,0.136
4.885,0.126
4.890,0.114
4.895,0.106
4.900,0.094
4.905,0.087
4.910,0.076
4.915,0.075
4.920,0.082
4.925,0.079
4.930,0.077
4.935,0.072
4.940,0.066
4.945,0.062
4.950,0.055
4.955,0.049
4.960,0.038
4.965,0.030
4.970,0.026
4.975,0.016
4.980,0.012
4.985,0.004
4.990,-0.002
4.995,-0.006
5.000,-0.015
5.005,-0.019
5.010,-0.031
5.015,-0.040
5.020,-0.047
5.025,-0.059
5.030,-0.060
5.035,-0.061
5.040,-0.069
5.045,-0.076
5.050,-0.081
5.055,-0.082
5.060,-0.092
5.065,-0.092
5.070,-0.077
5.075,-0.059
5.080,-0.037
5.085,-0.015
5.090,0.014
5.095,0.043
5.100,0.061
5.105,0.076
5.110,0.081
5.115,0.091
5.120,0.101
5.125,0.095
5.130,0.092
5.135,0.091
5.140,0.094
5.145,0.094
5.150,0.083
5.155,0.078
5.160,0.072
5.165,0.074
5.170,0.077
5.175,0.070
5.180,0.067
5.185,0.062
5.190,0.056
5.195,0.050
5.200,0.041
5.205,0.036
5.210,0.028
5.215,0.028
5.220,0.028
5.225,0.022
5.230,0.021
5.235,0.015
5.240,0.014
5.245,0.013
5.250,0.010
5.255,0.013
5.260,0.008
5.265,0.004
5.270,0.002
5.275,-0.003
5.280,0.004
5.285,0.005
5.290,0.001
5.295,-0.004
5.300,-0.007
5.305,-0.002
5.310,-0.007
5.315,-0.009
5.320,-0.008
5.325,-0.009
5.330,0.000
5.335,0.001
5.340,0.004
5.345,0.002
5.350,-0.005
5.355,-0.004
5.360,-0.011
5.365,-0.012
5.370,-0.008
5.375,-0.014
5.380,-0.012
5.385,-0.015
5.390,-0.016
5.395,-0.014
5.400,-0.014
5.405,-0.008
5.410,-0.015
5.415,-0.019
5.420,-0.018
5.425,-0.023
5.430,-0.023
5.435,-0.029
5.440,-0.026
5.445,-0.021
5.450,-0.023
5.455,-0.021
5.460,-0.029
5.465,-0.039
5.470,-0.054
5.475,-0.078
5.480,-0.089
5.485,-0.093
5.490,-0.085
5.495,-0.070
5.500,-0.090
5.505,-0.139
5.510,-0.166
5.515,-0.131
5.520,-0.078
5.525,-0.043
5.530,-0.021
5.535,-0.016
5.540,-0.010
5.545,-0.008
5.550,0.010
5.555,0.049
5.560,0.062
5.565,0.061
5.570,0.060
5.575,0.053
5.580,0.047
5.585,0.038
5.590,0.036
5.595,0.033
5.600,0.027
5.605,0.030
5.610,0.025
5.615,0.023
5.620,0.018
5.625,0.005
5.630,0.000
5.635,-0.009
5.640,-0.006
5.645,0.014
5.650,0.022
5.655,-0.032
5.660,-0.199
5.665,-0.491
5.670,-0.923
5.675,-1.409
5.680,-1.587
5.685,-1.224
5.690,-0.567
5.695,0.085
5.700,0.531
5.705,0.646
5.710,0.543
5.715,0.367
5.720,0.237
5.725,0.233
5.730,0.245
5.735,0.212
5.740,0.213
5.745,0.225
5.750,0.199
5.755,0.187
5.760,0.188
5.765,0.179
5.770,0.167
5.775,0.161
5.780,0.158
5.785,0.143
5.790,0.137
5.795,0.133
5.800,0.123
5.805,0.122
5.810,0.116
5.815,0.110
5.820,0.107
5.825,0.099
5.830,0.093
5.835,0.080
5.840,0.074
5.845,0.072
5.850,0.069
5.855,0.073
5.860,0.060
5.865,0.047
5.870,0.043
5.875,0.034
5.880,0.030
5.885,0.022
5.890,0.015
5.895,0.008
5.900,-0.002
5.905,-0.008
5.910,-0.019
5.915,-0.022
5.920,-0.027
5.925,-0.040
5.930,-0.047
5.935,-0.058
5.940,-0.062
5.945,-0.066
5.950,-0.075
5.955,-0.080
5.960,-0.092
5.965,-0.100
5.970,-0.108
5.975,-0.114
5.980,-0.100
5.985,-0.081
5.990,-0.059
5.995,-0.037
6.000,-0.008
6.005,0.031
6.010,0.051
6.015,0.066
6.020,0.080
6.025,0.085
6.030,0.094
6.035,0.095
6.040,0.098
6.045,0.100
6.050,0.097
6.055,0.096
6.060,0.092
6.065,0.096
6.070,0.098
6.075,0.086
6.080,0.074
6.085,0.059
6.090,0.051
6.095,0.046
6.100,0.041
6.105,0.042
6.110,0.039
6.115,0.042
6.120,0.040
6.125,0.034
6.130,0.036
6.135,0.031
6.140,0.024
6.145,0.013
6.150,0.004
6.155,0.005
6.160,0.000
6.165,0.000
6.170,0.007
6.175,0.015
6.180,0.024
6.185,0.019
6.190,0.011
6.195,0.001
6.200,-0.005
6.205,-0.001
6.210,-0.006
6.215,-0.003
6.220,0.001
6.225,-0.004
6.230,-0.008
6.235,-0.016
6.240,-0.014
6.245,-0.009
6.250,-0.007
6.255,-0.001
6.260,0.001
6.265,0.002
6.270,0.000
6.275,-0.006
6.280,-0.011
6.285,-0.019
6.290,-0.016
6.295,-0.016
6.300,-0.016
6.305,-0.012
6.310,-0.021
6.315,-0.026
6.320,-0.026
6.325,-0.030
6.330,-0.023
6.335,-0.021
6.340,-0.019
6.345,-0.019
6.350,-0.021
6.355,-0.020
6.360,-0.027
6.365,-0.024
6.370,-0.025
6.375,-0.031
6.380,-0.025
6.385,-0.023
6.390,-0.021
6.395,-0.028
6.400,-0.030
6.405,-0.025
6.410,-0.031
6.415,-0.030
6.420,-0.025
6.425,-0.024
6.430,-0.021
6.435,-0.025
6.440,-0.026
6.445,-0.030
6.450,-0.030
6.455,-0.030
6.460,-0.042
6.465,-0.035
6.470,-0.020
6.475,-0.014
6.480,-0.013
6.485,-0.026
6.490,-0.030
6.495,-0.024
6.500,-0.018
6.505,-0.017
6.510,-0.036
6.515,-0.057
6.520,-0.078
6.525,-0.096
6.530,-0.105
6.535,-0.095
6.540,-0.070
6.545,-0.101
6.550,-0.152
6.555,-0.152
6.560,-0.119
6.565,-0.063
6.570,-0.026
6.575,-0.018
6.580,-0.012
6.585,-0.020
6.590,-0.009
6.595,0.029
6.600,0.070
6.605,0.089
6.610,0.078
6.615,0.070
6.620,0.065
6.625,0.056
6.630,0.053
6.635,0.046
6.640,0.047
6.645,0.045
6.650,0.042
6.655,0.039
6.660,0.024
6.665,0.028
6.670,0.030
6.675,0.027
6.680,0.030
6.685,0.022
6.690,0.033
6.695,0.048
6.700,0.008
6.705,-0.118
6.710,-0.367
6.715,-0.762
6.720,-1.256
6.725,-1.569
6.730,-1.360
6.735,-0.746
6.740,-0.060
6.745,0.460
6.750,0.665
6.755,0.632
6.760,0.462
6.765,0.275
6.770,0.222
6.775,0.245
6.780,0.241
6.785,0.230
6.790,0.233
6.795,0.216
6.800,0.201
6.805,0.199
6.810,0.178
6.815,0.162
6.820,0.153
6.825,0.145
6.830,0.145
6.835,0.146
6.840,0.154
6.845,0.142
6.850,0.116
6.855,0.102
6.860,0.088
6.865,0.095
6.870,0.106
6.875,0.091
6.880,0.082
6.885,0.084
6.890,0.089
6.895,0.085
6.900,0.071
6.905,0.058
6.910,0.041
6.915,0.039
6.920,0.044
6.925,0.041
6.930,0.032
6.935,0.021
6.940,0.022
6.945,0.017
6.950,0.008
6.955,0.004
6.960,-0.014
6.965,-0.022
6.970,-0.023
6.975,-0.022
6.980,-0.018
6.985,-0.034
6.990,-0.043
6.995,-0.041
7.000,-0.042
7.005,-0.047
7.010,-0.067
7.015,-0.078
7.020,-0.082
7.025,-0.083
7.030,-0.075
7.035,-0.067
7.040,-0.048
7.045,-0.027
7.050,-0.008
7.055,0.015
7.060,0.027
7.065,0.047
7.070,0.064
7.075,0.074
7.080,0.086
7.085,0.094
7.090,0.101
7.095,0.100
7.100,0.093
7.105,0.087
7.110,0.076
7.115,0.073
7.120,0.066
7.125,0.060
7.130,0.058
7.135,0.052
7.140,0.050
7.145,0.041
7.150,0.034
7.155,0.032
7.160,0.021
7.165,0.016
7.170,0.015
7.175,0.016
7.180,0.019
7.185,0.013
7.190,0.011
7.195,0.004
7.200,0.003
7.205,0.010
7.210,0.003
7.215,0.003
7.220,0.004
7.225,0.003
7.230,0.006
7.235,0.004
7.240,0.004
7.245,-0.001
7.250,-0.004
7.255,0.001
7.260,0.001
7.265,0.004
7.270,0.001
7.275,0.001
7.280,0.008
7.285,0.010
7.290,0.013
7.295,0.008
7.300,0.004
7.305,0.006
7.310,-0.003
7.315,-0.003
7.320,0.001
7.325,0.000
7.330,-0.003
7.335,-0.007
7.340,-0.001
7.345,-0.001
7.350,0.001
7.355,0.003
7.360,-0.008
7.365,-0.010
7.370,-0.014
7.375,-0.015
7.380,-0.007
7.385,-0.006
7.390,-0.006
7.395,-0.011
7.400,-0.011
7.405,-0.010
7.410,-0.016
7.415,-0.015
7.420,-0.015
7.425,-0.016
7.430,-0.021
7.435,-0.042
7.440,-0.061
7.445,-0.080
7.450,-0.090
7.455,-0.079
7.460,-0.063
7.465,-0.069
7.470,-0.122
7.475,-0.158
7.480,-0.129
7.485,-0.073
7.490,-0.026
7.495,-0.016
7.500,-0.011
7.505,-0.003
7.510,-0.013
7.515,0.002
7.520,0.039
7.525,0.062
7.530,0.066
7.535,0.059
7.540,0.063
7.545,0.056
7.550,0.044
7.555,0.044
7.560,0.040
7.565,0.042
7.570,0.038
7.575,0.028
7.580,0.023
7.585,0.016
7.590,0.015
7.595,0.011
7.600,0.007
7.605,0.008
7.610,0.018
7.615,0.030
7.620,-0.026
7.625,-0.184
7.630,-0.481
7.635,-0.930
7.640,-1.421
7.645,-1.619
7.650,-1.257
7.655,-0.582
7.660,0.086
7.665,0.544
7.670,0.660
7.675,0.575
7.680,0.398
7.685,0.246
7.690,0.237
7.695,0.242
7.700,0.216
7.705,0.220
7.710,0.217
7.715,0.201
7.720,0.193
7.725,0.197
7.730,0.188
7.735,0.170
7.740,0.168
7.745,0.157
7.750,0.143
7.755,0.139
7.760,0.127
7.765,0.120
7.770,0.112
7.775,0.104
7.780,0.098
7.785,0.090
7.790,0.091
7.795,0.082
7.800,0.076
7.805,0.076
7.810,0.066
7.815,0.065
7.820,0.060
7.825,0.051
7.830,0.045
7.835,0.039
7.840,0.041
7.845,0.034
7.850,0.024
7.855,0.020
7.860,0.008
7.865,0.001
7.870,-0.006
7.875,-0.009
7.880,-0.013
7.885,-0.027
7.890,-0.030
7.895,-0.040
7.900,-0.048
7.905,-0.055
7.910,-0.069
7.915,-0.066
7.920,-0.069
7.925,-0.080
7.930,-0.089
7.935,-0.096
7.940,-0.090
7.945,-0.086
7.950,-0.074
7.955,-0.051
7.960,-0.029
7.965,0.002
7.970,0.023
7.975,0.043
7.980,0.065
7.985,0.082
7.990,0.100
7.995,0.103
8.000,0.103
8.005,0.105
8.010,0.099
8.015,0.099
8.020,0.093
8.025,0.086
8.030,0.086
8.035,0.086
8.040,0.086
8.045,0.073
8.050,0.066
8.055,0.067
8.060,0.061
8.065,0.057
8.070,0.047
8.075,0.039
8.080,0.035
8.085,0.030
8.090,0.035
8.095,0.032
8.100,0.027
8.105,0.022
8.110,0.012
8.115,0.013
8.120,0.012
8.125,0.009
8.130,0.009
8.135,0.006
8.140,0.005
8.145,-0.004
8.150,-0.009
8.155,-0.009
8.160,-0.014
8.165,-0.007
8.170,-0.003
8.175,-0.002
8.180,0.002
8.185,-0.002
8.190,-0.003
8.195,-0.006
8.200,-0.007
8.205,-0.005
8.210,-0.009
8.215,-0.007
8.220,-0.006
8.225,-0.007
8.230,-0.009
8.235,-0.011
8.240,-0.004
8.245,-0.005
8.250,-0.008
8.255,-0.009
8.260,-0.020
8.265,-0.022
8.270,-0.020
8.275,-0.016
8.280,-0.013
8.285,-0.020
8.290,-0.024
8.295,-0.032
8.300,-0.035
8.305,-0.029
8.310,-0.027
8.315,-0.019
8.320,-0.013
8.325,-0.016
8.330,-0.022
8.335,-0.029
8.340,-0.026
8.345,-0.027
8.350,-0.027
8.355,-0.034
8.360,-0.054
8.365,-0.069
8.370,-0.091
8.375,-0.104
8.380,-0.103
8.385,-0.087
8.390,-0.072
8.395,-0.109
8.400,-0.162
8.405,-0.169
8.410,-0.135
8.415,-0.078
8.420,-0.039
8.425,-0.018
8.430,-0.003
8.435,-0.009
8.440,-0.013
8.445,0.008
8.450,0.044
8.455,0.064
8.460,0.057
8.465,0.053
8.470,0.053
8.475,0.055
8.480,0.052
8.485,0.042
8.490,0.038
8.495,0.031
8.500,0.033
8.505,0.029
8.510,0.014
8.515,0.005
8.520,0.001
8.525,0.006
8.530,0.011
8.535,0.015
8.540,0.029
8.545,0.015
8.550,-0.065
8.555,-0.243
8.560,-0.563
8.565,-1.015
8.570,-1.470
8.575,-1.556
8.580,-1.108
8.585,-0.440
8.590,0.193
8.595,0.577
8.600,0.644
8.605,0.535
8.610,0.341
8.615,0.219
8.620,0.228
8.625,0.232
8.630,0.206
8.635,0.204
8.640,0.207
8.645,0.191
8.650,0.190
8.655,0.187
8.660,0.159
8.665,0.150
8.670,0.157
8.675,0.155
8.680,0.144
8.685,0.130
8.690,0.115
8.695,0.095
8.700,0.098
8.705,0.112
8.710,0.111
8.715,0.107
8.720,0.101
8.725,0.094
8.730,0.075
8.735,0.056
8.740,0.059
8.745,0.059
8.750,0.056
8.755,0.050
8.760,0.037
8.765,0.037
8.770,0.033
8.775,0.030
8.780,0.024
8.785,0.012
8.790,0.009
8.795,0.001
8.800,-0.007
8.805,-0.015
8.810,-0.032
8.815,-0.039
8.820,-0.043
8.825,-0.044
8.830,-0.050
8.835,-0.054
8.840,-0.054
8.845,-0.070
8.850,-0.079
8.855,-0.083
8.860,-0.095
8.865,-0.098
8.870,-0.101
8.875,-0.092
8.880,-0.071
8.885,-0.051
8.890,-0.023
8.895,0.005
8.900,0.035
8.905,0.056
8.910,0.062
8.915,0.076
8.920,0.089
8.925,0.100
8.930,0.105
8.935,0.100
8.940,0.102
8.945,0.095
8.950,0.092
8.955,0.099
8.960,0.099
8.965,0.096
8.970,0.085
8.975,0.073
8.980,0.063
8.985,0.059
8.990,0.062
8.995,0.054
9.000,0.048
9.005,0.046
9.010,0.042
9.015,0.044
9.020,0.033
9.025,0.024
9.030,0.022
9.035,0.024
9.040,0.033
9.045,0.021
9.050,0.009
9.055,0.012
9.060,0.014
9.065,0.017
9.070,0.014
9.075,0.008
9.080,0.002
9.085,-0.001
9.090,0.002
9.095,-0.003
9.100,-0.004
9.105,-0.006
9.110,-0.005
9.115,0.008
9.120,0.003
9.125,0.000
9.130,-0.004
9.135,-0.008
9.140,0.003
9.145,0.000
9.150,-0.001
9.155,-0.003
9.160,-0.016
9.165,-0.015
9.170,-0.013
9.175,-0.009
9.180,-0.011
9.185,-0.023
9.190,-0.024
9.195,-0.021
9.200,-0.005
9.205,-0.003
9.210,-0.016
9.215,-0.018
9.220,-0.024
9.225,-0.020
9.230,-0.019
9.235,-0.022
9.240,-0.017
9.245,-0.035
9.250,-0.054
9.255,-0.064
9.260,-0.073
9.265,-0.080
9.270,-0.090
9.275,-0.079
9.280,-0.085
9.285,-0.132
9.290,-0.164
9.295,-0.156
9.300,-0.103
9.305,-0.055
9.310,-0.043
9.315,-0.027
9.320,-0.011
9.325,-0.007
9.330,0.012
9.335,0.045
9.340,0.064
9.345,0.054
9.350,0.048
9.355,0.049
9.360,0.040
9.365,0.031
9.370,0.028
9.375,0.045
9.380,0.050
9.385,0.039
9.390,0.032
9.395,0.014
9.400,0.006
9.405,0.005
9.410,-0.002
9.415,-0.005
9.420,-0.006
9.425,0.019
9.430,0.053
9.435,0.034
9.440,-0.085
9.445,-0.337
9.450,-0.739
9.455,-1.252
9.460,-1.603
9.465,-1.434
9.470,-0.825
9.475,-0.125
9.480,0.423
9.485,0.651
9.490,0.632
9.495,0.489
9.500,0.301
9.505,0.220
9.510,0.216
9.515,0.200
9.520,0.199
9.525,0.212
9.530,0.197
9.535,0.182
9.540,0.182
9.545,0.164
9.550,0.147
9.555,0.141
9.560,0.133
9.565,0.127
9.570,0.116
9.575,0.114
9.580,0.111
9.585,0.105
9.590,0.107
9.595,0.100
9.600,0.093
9.605,0.084
9.610,0.073
9.615,0.070
9.620,0.068
9.625,0.069
9.630,0.061
9.635,0.053
9.640,0.053
9.645,0.044
9.650,0.041
9.655,0.037
9.660,0.027
9.665,0.026
9.670,0.021
9.675,0.016
9.680,0.007
9.685,-0.002
9.690,-0.008
9.695,-0.021
9.700,-0.026
9.705,-0.027
9.710,-0.034
9.715,-0.042
9.720,-0.050
9.725,-0.048
9.730,-0.051
9.735,-0.061
9.740,-0.068
9.745,-0.082
9.750,-0.086
9.755,-0.092
9.760,-0.094
9.765,-0.075
9.770,-0.054
9.775,-0.026
9.780,0.001
9.785,0.026
9.790,0.052
9.795,0.064
9.800,0.082
9.805,0.095
9.810,0.098
9.815,0.102
9.820,0.099
9.825,0.101
9.830,0.097
9.835,0.094
9.840,0.097
9.845,0.091
9.850,0.093
9.855,0.090
9.860,0.080
9.865,0.073
9.870,0.064
9.875,0.062
9.880,0.055
9.885,0.050
9.890,0.050
9.895,0.040
9.900,0.040
9.905,0.035
9.910,0.026
9.915,0.019
9.920,0.009
9.925,0.012
9.930,0.012
9.935,0.012
9.940,0.019
9.945,0.015
9.950,0.015
9.955,0.014
9.960,0.011
9.965,0.012
9.970,0.005
9.975,0.003
9.980,-0.002
9.985,-0.001
9.990,0.007
9.995,0.002
10.000,0.003
10.005,-0.001
10.010,-0.006
10.015,-0.004
10.020,-0.007
10.025,-0.002
10.030,-0.001
10.035,-0.002
10.040,0.002
10.045,-0.005
10.050,-0.004
10.055,-0.002
10.060,-0.006
10.065,-0.008
10.070,-0.014
10.075,-0.012
10.080,-0.013
10.085,-0.014
10.090,-0.011
10.095,-0.019
10.100,-0.018
10.105,-0.018
10.110,-0.022
10.115,-0.021
10.120,-0.026
10.125,-0.024
10.130,-0.025
10.135,-0.022
10.140,-0.015
10.145,-0.023
10.150,-0.025
10.155,-0.028
10.160,-0.032
10.165,-0.034
10.170,-0.053
10.175,-0.074
10.180,-0.088
10.185,-0.088
10.190,-0.069
10.195,-0.058
10.200,-0.085
10.205,-0.144
10.210,-0.166
10.215,-0.131
10.220,-0.084
10.225,-0.043
10.230,-0.029
10.235,-0.021
10.240,-0.012
10.245,-0.018
10.250,0.009
10.255,0.050
10.260,0.068
10.265,0.073
10.270,0.066
10.275,0.061
10.280,0.049
10.285,0.041
10.290,0.045
10.295,0.040
10.300,0.040
10.305,0.035
10.310,0.026
10.315,0.019
10.320,0.007
10.325,0.004
10.330,-0.004
10.335,-0.007
10.340,0.004
10.345,0.012
10.350,0.025
10.355,-0.015
10.360,-0.156
10.365,-0.424
10.370,-0.851
10.375,-1.347
10.380,-1.599
10.385,-1.311
10.390,-0.671
10.395,-0.013
10.400,0.481
10.405,0.647
10.410,0.576
10.415,0.407
10.420,0.243
10.425,0.222
10.430,0.238
10.435,0.214
10.440,0.221
10.445,0.229
10.450,0.213
10.455,0.193
10.460,0.191
10.465,0.186
10.470,0.169
10.475,0.171
10.480,0.165
10.485,0.149
10.490,0.144
10.495,0.133
10.500,0.126
10.505,0.120
10.510,0.116
10.515,0.114
10.520,0.102
10.525,0.097
10.530,0.089
10.535,0.082
10.540,0.084
10.545,0.077
10.550,0.073
10.555,0.066
10.560,0.056
10.565,0.050
10.570,0.043
10.575,0.039
10.580,0.030
10.585,0.024
10.590,0.024
10.595,0.012
10.600,0.004
10.605,-0.006
10.610,-0.014
10.615,-0.016
10.620,-0.025
10.625,-0.033
10.630,-0.044
10.635,-0.049
10.640,-0.052
10.645,-0.061
10.650,-0.066
10.655,-0.076
10.660,-0.087
10.665,-0.095
10.670,-0.102
10.675,-0.098
10.680,-0.096
10.685,-0.083
10.690,-0.056
10.695,-0.035
10.700,-0.007
10.705,0.017
10.710,0.038
10.715,0.059
10.720,0.071
10.725,0.084
10.730,0.088
10.735,0.092
10.740,0.100
10.745,0.100
10.750,0.099
10.755,0.095
10.760,0.090
10.765,0.088
10.770,0.083
10.775,0.075
10.780,0.061
10.785,0.057
10.790,0.058
10.795,0.050
10.800,0.047
10.805,0.039
10.810,0.034
10.815,0.033
10.820,0.029
10.825,0.028
10.830,0.020
10.835,0.017
10.840,0.018
10.845,0.011
10.850,0.008
10.855,0.003
10.860,0.001
10.865,0.003
10.870,0.002
10.875,0.006
10.880,0.003
10.885,0.007
10.890,0.013
10.895,0.004
10.900,0.002
10.905,0.000
10.910,0.000
10.915,-0.001
10.920,-0.002
10.925,0.002
10.930,-0.009
10.935,-0.018
10.940,-0.019
10.945,-0.019
10.950,-0.003
10.955,-0.001
10.960,-0.007
10.965,-0.009
10.970,-0.013
10.975,-0.010
10.980,-0.010
10.985,-0.009
10.990,-0.009
10.995,-0.015
11.000,-0.015
11.005,-0.015
11.010,-0.013
11.015,-0.018
11.020,-0.026
11.025,-0.021
11.030,-0.020
11.035,-0.015
11.040,-0.011
11.045,-0.019
11.050,-0.022
11.055,-0.033
11.060,-0.035
11.065,-0.030
11.070,-0.030
11.075,-0.023
11.080,-0.026
11.085,-0.026
11.090,-0.018
11.095,-0.023
11.100,-0.026
11.105,-0.031
11.110,-0.035
11.115,-0.034
11.120,-0.035
11.125,-0.029
11.130,-0.029
11.135,-0.025
11.140,-0.022
11.145,-0.034
11.150,-0.046
11.155,-0.071
11.160,-0.095
11.165,-0.106
11.170,-0.099
11.175,-0.070
11.180,-0.084
11.185,-0.135
11.190,-0.157
11.195,-0.133
11.200,-0.076
11.205,-0.035
11.210,-0.016
11.215,-0.003
11.220,-0.005
11.225,-0.008
11.230,0.004
11.235,0.036
11.240,0.052
11.245,0.042
11.250,0.047
11.255,0.059
11.260,0.063
11.265,0.057
11.270,0.045
11.275,0.044
11.280,0.039
11.285,0.029
11.290,0.021
11.295,0.022
11.300,0.032
11.305,0.029
11.310,0.018
11.315,0.009
11.320,0.013
11.325,0.034
11.330,0.045
11.335,0.013
11.340,-0.117
11.345,-0.379
11.350,-0.780
11.355,-1.279
11.360,-1.576
11.365,-1.347
11.370,-0.728
11.375,-0.047
11.380,0.460
11.385,0.653
11.390,0.613
11.395,0.447
11.400,0.267
11.405,0.223
11.410,0.245
11.415,0.225
11.420,0.210
11.425,0.218
11.430,0.201
11.435,0.189
11.440,0.188
11.445,0.172
11.450,0.160
11.455,0.148
11.460,0.137
11.465,0.135
11.470,0.132
11.475,0.136
11.480,0.126
11.485,0.115
11.490,0.115
11.495,0.106
11.500,0.100
11.505,0.093
11.510,0.088
11.515,0.083
11.520,0.076
11.525,0.076
11.530,0.066
11.535,0.060
11.540,0.059
11.545,0.049
11.550,0.047
11.555,0.041
11.560,0.030
11.565,0.022
11.570,0.013
11.575,0.013
11.580,0.008
11.585,0.005
11.590,0.002
11.595,-0.014
11.600,-0.018
11.605,-0.018
11.610,-0.024
11.615,-0.035
11.620,-0.049
11.625,-0.047
11.630,-0.048
11.635,-0.055
11.640,-0.062
11.645,-0.075
11.650,-0.081
11.655,-0.091
11.660,-0.089
11.665,-0.073
11.670,-0.061
11.675,-0.040
11.680,-0.016
11.685,0.010
11.690,0.034
11.695,0.043
11.700,0.057
11.705,0.076
11.710,0.093
11.715,0.098
11.720,0.097
11.725,0.095
11.730,0.085
11.735,0.084
11.740,0.088
11.745,0.090
11.750,0.091
11.755,0.080
11.760,0.072
11.765,0.061
11.770,0.053
11.775,0.055
11.780,0.049
11.785,0.051
11.790,0.052
11.795,0.040
11.800,0.037
11.805,0.034
11.810,0.031
11.815,0.022
11.820,0.012
11.825,0.018
11.830,0.019
11.835,0.013
11.840,0.006
11.845,0.007
11.850,0.017
11.855,0.008
11.860,-0.007
11.865,-0.008
11.870,0.004
11.875,0.008
11.880,-0.003
11.885,-0.005
11.890,-0.004
11.895,-0.008
11.900,-0.002
11.905,0.008
11.910,0.016
11.915,0.010
11.920,-0.001
11.925,0.008
11.930,0.004
11.935,-0.001
11.940,0.005
11.945,-0.001
11.950,-0.001
11.955,-0.003
11.960,-0.003
11.965,0.004
11.970,0.004
11.975,0.002
11.980,-0.005
11.985,-0.010
11.990,-0.021
11.995,-0.033
12.000,-0.032
12.005,-0.029
12.010,-0.023
12.015,-0.024
12.020,-0.030
12.025,-0.025
12.030,-0.021
12.035,-0.016
12.040,-0.025
12.045,-0.050
12.050,-0.071
12.055,-0.087
12.060,-0.088
12.065,-0.075
12.070,-0.057
12.075,-0.078
12.080,-0.140
12.085,-0.155
12.090,-0.123
12.095,-0.080
12.100,-0.043
12.105,-0.029
12.110,-0.012
12.115,-0.007
12.120,-0.010
12.125,0.016
12.130,0.043
12.135,0.062
12.140,0.065
12.145,0.059
12.150,0.053
12.155,0.042
12.160,0.049
12.165,0.056
12.170,0.051
12.175,0.046
12.180,0.032
12.185,0.025
12.190,0.021
12.195,0.012
12.200,0.008
12.205,0.002
12.210,0.007
12.215,0.020
12.220,0.046
12.225,0.053
12.230,-0.037
12.235,-0.241
12.240,-0.586
12.245,-1.078
12.250,-1.544
12.255,-1.594
12.260,-1.099
12.265,-0.407
12.270,0.232
12.275,0.595
12.280,0.627
12.285,0.532
12.290,0.344
12.295,0.217
12.300,0.233
12.305,0.216
12.310,0.190
12.315,0.202
12.320,0.203
12.325,0.193
12.330,0.187
12.335,0.192
12.340,0.181
12.345,0.160
12.350,0.149
12.355,0.136
12.360,0.133
12.365,0.122
12.370,0.110
12.375,0.114
12.380,0.110
12.385,0.118
12.390,0.119
12.395,0.101
12.400,0.089
12.405,0.074
12.410,0.075
12.415,0.071
12.420,0.061
12.425,0.065
12.430,0.056
12.435,0.050
12.440,0.050
12.445,0.048
12.450,0.049
12.455,0.039
12.460,0.030
12.465,0.026
12.470,0.011
12.475,-0.001
12.480,-0.006
12.485,-0.006
12.490,-0.017
12.495,-0.030
12.500,-0.025
12.505,-0.031
12.510,-0.040
12.515,-0.046
12.520,-0.050
12.525,-0.052
12.530,-0.071
12.535,-0.076
12.540,-0.075
12.545,-0.084
12.550,-0.089
12.555,-0.088
12.560,-0.056
12.565,-0.021
12.570,0.004
12.575,0.026
12.580,0.036
12.585,0.055
12.590,0.067
12.595,0.080
12.600,0.097
12.605,0.100
12.610,0.105
12.615,0.099
12.620,0.095
12.625,0.098
12.630,0.089
12.635,0.087
12.640,0.087
12.645,0.084
12.650,0.083
12.655,0.075
12.660,0.073
12.665,0.063
12.670,0.051
12.675,0.051
12.680,0.045
12.685,0.045
12.690,0.043
12.695,0.036
12.700,0.034
12.705,0.023
12.710,0.020
12.715,0.018
12.720,0.010
12.725,0.009
12.730,0.002
12.735,0.006
12.740,0.010
12.745,-0.001
12.750,-0.006
12.755,-0.007
12.760,-0.006
12.765,-0.004
12.770,-0.001
12.775,0.006
12.780,-0.001
12.785,-0.005
12.790,-0.006
12.795,-0.007
12.800,-0.003
12.805,-0.008
12.810,-0.009
12.815,-0.010
12.820,-0.013
12.825,-0.013
12.830,-0.016
12.835,-0.005
12.840,0.003
12.845,0.004
12.850,0.011
12.855,0.009
12.860,0.009
12.865,0.003
12.870,-0.008
12.875,-0.009
12.880,-0.017
12.885,-0.017
12.890,-0.016
12.895,-0.023
12.900,-0.021
12.905,-0.019
12.910,-0.019
12.915,-0.023
12.920,-0.035
12.925,-0.059
12.930,-0.092
12.935,-0.096
12.940,-0.085
12.945,-0.068
12.950,-0.063
12.955,-0.107
12.960,-0.150
12.965,-0.149
12.970,-0.110
12.975,-0.057
12.980,-0.031
12.985,-0.020
12.990,-0.006
12.995,-0.003
13.000,0.002
13.005,0.028
13.010,0.058
13.015,0.060
13.020,0.054
13.025,0.057
13.030,0.052
13.035,0.049
13.040,0.047
13.045,0.039
13.050,0.035
13.055,0.031
13.060,0.036
13.065,0.039
13.070,0.035
13.075,0.029
13.080,0.016
13.085,0.016
13.090,0.022
13.095,0.036
13.100,0.043
13.105,-0.007
13.110,-0.135
13.115,-0.385
13.120,-0.786
13.125,-1.283
13.130,-1.600
13.135,-1.382
13.140,-0.765
13.145,-0.095
13.150,0.442
13.155,0.652
13.160,0.588
13.165,0.412
13.170,0.249
13.175,0.230
13.180,0.256
13.185,0.231
13.190,0.216
13.195,0.229
13.200,0.218
13.205,0.190
13.210,0.194
13.215,0.190
13.220,0.170
13.225,0.165
13.230,0.153
13.235,0.140
13.240,0.130
13.245,0.120
13.250,0.112
13.255,0.099
13.260,0.102
13.265,0.099
13.270,0.092
13.275,0.096
13.280,0.087
13.285,0.077
13.290,0.069
13.295,0.067
13.300,0.061
13.305,0.043
13.310,0.032
13.315,0.018
13.320,0.012
13.325,0.016
13.330,0.013
13.335,0.023
13.340,0.018
13.345,-0.002
13.350,-0.014
13.355,-0.029
13.360,-0.039
13.365,-0.052
13.370,-0.058
13.375,-0.059
13.380,-0.068
13.385,-0.072
13.390,-0.085
13.395,-0.092
13.400,-0.086
13.405,-0.098
13.410,-0.109
13.415,-0.118
13.420,-0.119
13.425,-0.107
13.430,-0.106
13.435,-0.100
13.440,-0.083
13.445,-0.059
13.450,-0.030
13.455,-0.006
13.460,0.023
13.465,0.047
13.470,0.068
13.475,0.081
13.480,0.078
13.485,0.091
13.490,0.105
13.495,0.104
13.500,0.098
13.505,0.081
13.510,0.076
13.515,0.071
13.520,0.065
13.525,0.065
13.530,0.059
13.535,0.065
13.540,0.068
13.545,0.057
13.550,0.038
13.555,0.022
13.560,0.029
13.565,0.031
13.570,0.032
13.575,0.039
13.580,0.033
13.585,0.029
13.590,0.018
13.595,0.004
13.600,-0.002
13.605,-0.006
13.610,0.004
13.615,0.004
13.620,0.003
13.625,0.008
13.630,-0.003
13.635,-0.001
13.640,-0.001
13.645,-0.012
13.650,-0.017
13.655,-0.021
13.660,-0.015
13.665,-0.012
13.670,-0.010
13.675,-0.003
13.680,-0.007
13.685,-0.009
13.690,-0.013
13.695,-0.012
13.700,-0.009
13.705,-0.015
13.710,-0.013
13.715,-0.018
13.720,-0.018
13.725,-0.008
13.730,-0.016
13.735,-0.014
13.740,-0.010
13.745,-0.007
13.750,0.001
13.755,-0.015
13.760,-0.043
13.765,-0.077
13.770,-0.098
13.775,-0.102
13.780,-0.089
13.785,-0.057
13.790,-0.071
13.795,-0.118
13.800,-0.137
13.805,-0.126
13.810,-0.087
13.815,-0.055
13.820,-0.034
13.825,-0.014
13.830,-0.010
13.835,-0.002
13.840,0.019
13.845,0.048
13.850,0.073
13.855,0.074
13.860,0.068
13.865,0.063
13.870,0.060
13.875,0.062
13.880,0.045
13.885,0.022
13.890,0.014
13.895,0.026
13.900,0.042
13.905,0.039
13.910,0.029
13.915,0.016
13.920,0.011
13.925,0.012
13.930,0.009
13.935,0.026
13.940,0.029
13.945,-0.043
13.950,-0.227
13.955,-0.565
13.960,-1.043
13.965,-1.512
13.970,-1.568
13.975,-1.075
13.980,-0.396
13.985,0.233
13.990,0.598
13.995,0.647
14.000,0.547
14.005,0.353
14.010,0.232
14.015,0.245
14.020,0.247
14.025,0.223
14.030,0.211
14.035,0.191
14.040,0.171
14.045,0.179
14.050,0.183
14.055,0.171
14.060,0.165
14.065,0.151
14.070,0.138
14.075,0.130
14.080,0.124
14.085,0.133
14.090,0.129
14.095,0.114
14.100,0.104
14.105,0.085
14.110,0.081
14.115,0.084
14.120,0.081
14.125,0.080
14.130,0.076
14.135,0.073
14.140,0.064
14.145,0.054
14.150,0.049
14.155,0.044
14.160,0.040
14.165,0.029
14.170,0.025
14.175,0.029
14.180,0.023
14.185,0.024
14.190,0.016
14.195,0.005
14.200,0.000
14.205,-0.011
14.210,-0.019
14.215,-0.038
14.220,-0.051
14.225,-0.054
14.230,-0.064
14.235,-0.067
14.240,-0.074
14.245,-0.081
14.250,-0.090
14.255,-0.100
14.260,-0.094
14.265,-0.089
14.270,-0.076
14.275,-0.052
14.280,-0.035
14.285,-0.005
14.290,0.028
14.295,0.054
14.300,0.071
14.305,0.081
14.310,0.099
14.315,0.107
14.320,0.111
14.325,0.111
14.330,0.103
14.335,0.104
14.340,0.098
14.345,0.089
14.350,0.080
14.355,0.074
14.360,0.077
14.365,0.079
14.370,0.079
14.375,0.073
14.380,0.063
14.385,0.059
14.390,0.051
14.395,0.047
14.400,0.047
14.405,0.043
14.410,0.035
14.415,0.019
14.420,0.019
14.425,0.025
14.430,0.020
14.435,0.015
14.440,0.008
14.445,0.009
14.450,0.011
14.455,0.007
14.460,0.007
14.465,-0.001
14.470,0.000
14.475,0.006
14.480,0.002
14.485,0.003
14.490,0.003
14.495,0.010
14.500,0.008
14.505,-0.006
14.510,-0.007
14.515,-0.011
14.520,-0.006
14.525,0.008
14.530,0.007
14.535,0.006
14.540,0.002
14.545,0.003
14.550,0.005
14.555,-0.001
14.560,-0.001
14.565,-0.010
14.570,-0.027
14.575,-0.052
14.580,-0.077
14.585,-0.076
14.590,-0.071
14.595,-0.055
14.600,-0.056
14.605,-0.106
14.610,-0.148
14.615,-0.155
14.620,-0.121
14.625,-0.072
14.630,-0.046
14.635,-0.019
14.640,-0.001
14.645,-0.004
14.650,0.000
14.655,0.036
14.660,0.075
14.665,0.078
14.670,0.071
14.675,0.063
14.680,0.052
14.685,0.043
14.690,0.027
14.695,0.027
14.700,0.033
14.705,0.031
14.710,0.032
14.715,0.020
14.720,0.016
14.725,0.022
14.730,0.019
14.735,0.019
14.740,0.012
14.745,0.016
14.750,0.034
14.755,0.010
14.760,-0.101
14.765,-0.334
14.770,-0.715
14.775,-1.214
14.780,-1.613
14.785,-1.523
14.790,-0.942
14.795,-0.231
14.800,0.369
14.805,0.655
14.810,0.638
14.815,0.477
14.820,0.289
14.825,0.220
14.830,0.245
14.835,0.239
14.840,0.219
14.845,0.227
14.850,0.219
14.855,0.197
14.860,0.200
14.865,0.194
14.870,0.178
14.875,0.174
14.880,0.166
14.885,0.149
14.890,0.128
14.895,0.121
14.900,0.118
14.905,0.112
14.910,0.116
14.915,0.110
14.920,0.102
14.925,0.097
14.930,0.084
14.935,0.082
14.940,0.080
14.945,0.076
14.950,0.068
14.955,0.060
14.960,0.061
14.965,0.055
14.970,0.050
14.975,0.043
14.980,0.030
14.985,0.023
14.990,0.013
14.995,0.010
15.000,0.004
15.005,-0.009
15.010,-0.014
15.015,-0.027
15.020,-0.038
15.025,-0.047
15.030,-0.055
15.035,-0.053
15.040,-0.056
15.045,-0.058
15.050,-0.065
15.055,-0.077
15.060,-0.091
15.065,-0.110
15.070,-0.110
15.075,-0.103
15.080,-0.100
15.085,-0.082
15.090,-0.061
15.095,-0.030
15.100,-0.001
15.105,0.019
15.110,0.043
15.115,0.055
15.120,0.071
15.125,0.084
15.130,0.080
15.135,0.082
15.140,0.090
15.145,0.098
15.150,0.099
15.155,0.092
15.160,0.085
15.165,0.077
15.170,0.077
15.175,0.075
15.180,0.067
15.185,0.063
15.190,0.055
15.195,0.059
15.200,0.060
15.205,0.052
15.210,0.048
15.215,0.033
15.220,0.026
15.225,0.023
15.230,0.011
15.235,0.009
15.240,0.007
15.245,0.009
15.250,0.014
15.255,0.012
15.260,0.012
15.265,0.008
15.270,0.010
15.275,0.011
15.280,0.004
15.285,-0.001
15.290,-0.009
15.295,-0.007
15.300,-0.004
15.305,-0.004
15.310,0.000
15.315,-0.007
15.320,-0.012
15.325,-0.012
15.330,-0.013
15.335,-0.011
15.340,-0.010
15.345,-0.007
15.350,-0.010
15.355,-0.014
15.360,-0.009
15.365,-0.008
15.370,-0.004
15.375,-0.004
15.380,-0.011
15.385,-0.013
15.390,-0.021
15.395,-0.023
15.400,-0.024
15.405,-0.037
15.410,-0.063
15.415,-0.096
15.420,-0.097
15.425,-0.083
15.430,-0.071
15.435,-0.070
15.440,-0.115
15.445,-0.159
15.450,-0.161
15.455,-0.129
15.460,-0.078
15.465,-0.048
15.470,-0.027
15.475,-0.009
15.480,-0.010
15.485,-0.006
15.490,0.015
15.495,0.043
15.500,0.056
15.505,0.059
15.510,0.065
15.515,0.058
15.520,0.049
15.525,0.044
15.530,0.042
15.535,0.043
15.540,0.039
15.545,0.043
15.550,0.039
15.555,0.028
15.560,0.019
15.565,-0.002
15.570,-0.009
15.575,-0.013
15.580,-0.013
15.585,0.005
15.590,0.003
15.595,-0.061
15.600,-0.233
15.605,-0.538
15.610,-0.976
15.615,-1.452
15.620,-1.592
15.625,-1.187
15.630,-0.521
15.635,0.128
15.640,0.554
15.645,0.645
15.650,0.524
15.655,0.333
15.660,0.217
15.665,0.227
15.670,0.243
15.675,0.215
15.680,0.219
15.685,0.232
15.690,0.204
15.695,0.189
15.700,0.185
15.705,0.162
15.710,0.146
15.715,0.140
15.720,0.143
15.725,0.135
15.730,0.127
15.735,0.125
15.740,0.106
15.745,0.093
15.750,0.091
15.755,0.095
15.760,0.100
15.765,0.089
15.770,0.080
15.775,0.067
15.780,0.052
15.785,0.052
15.790,0.053
15.795,0.054
15.800,0.043
15.805,0.027
15.810,0.030
15.815,0.033
15.820,0.031
15.825,0.022
15.830,0.009
15.835,0.001
15.840,-0.020
15.845,-0.036
15.850,-0.041
15.855,-0.035
15.860,-0.024
15.865,-0.030
15.870,-0.031
15.875,-0.039
15.880,-0.063
15.885,-0.078
15.890,-0.086
15.895,-0.092
15.900,-0.108
15.905,-0.126
15.910,-0.117
15.915,-0.098
15.920,-0.076
15.925,-0.057
15.930,-0.043
15.935,-0.022
15.940,-0.005
15.945,0.015
15.950,0.037
15.955,0.059
15.960,0.085
15.965,0.095
15.970,0.100
15.975,0.101
15.980,0.105
15.985,0.113
15.990,0.101
15.995,0.087
16.000,0.073
16.005,0.069
16.010,0.074
16.015,0.075
16.020,0.087
16.025,0.084
16.030,0.066
16.035,0.052
16.040,0.040
16.045,0.037
16.050,0.032
16.055,0.030
16.060,0.040
16.065,0.040
16.070,0.042
16.075,0.041
16.080,0.027
16.085,0.019
16.090,0.015
16.095,0.016
16.100,0.010
16.105,0.008
16.110,0.015
16.115,0.012
16.120,0.010
16.125,0.003
16.130,0.000
16.135,0.008
16.140,0.005
16.145,-0.002
16.150,-0.009
16.155,-0.005
16.160,0.007
16.165,0.007
16.170,0.008
16.175,0.002
16.180,-0.006
16.185,-0.003
16.190,-0.002
16.195,0.002
16.200,-0.009
16.205,-0.018
16.210,-0.013
16.215,-0.010
16.220,-0.002
16.225,-0.001
16.230,-0.007
16.235,-0.008
16.240,-0.014
16.245,-0.015
16.250,-0.029
16.255,-0.052
16.260,-0.065
16.265,-0.076
16.270,-0.079
16.275,-0.073
16.280,-0.061
16.285,-0.073
16.290,-0.128
16.295,-0.159
16.300,-0.142
16.305,-0.097
16.310,-0.049
16.315,-0.035
16.320,-0.023
16.325,-0.007
16.330,-0.002
16.335,0.020
16.340,0.045
16.345,0.055
16.350,0.054
16.355,0.059
16.360,0.068
16.365,0.060
16.370,0.049
16.375,0.041
16.380,0.039
16.385,0.043
16.390,0.042
16.395,0.040
16.400,0.025
16.405,0.012
16.410,0.007
16.415,-0.001
16.420,0.007
16.425,0.019
16.430,0.034
16.435,0.048
16.440,0.005
16.445,-0.130
16.450,-0.389
16.455,-0.803
16.460,-1.314
16.465,-1.618
16.470,-1.377
16.475,-0.737
16.480,-0.044
16.485,0.475
16.490,0.664
16.495,0.624
16.500,0.459
16.505,0.279
16.510,0.235
16.515,0.238
16.520,0.211
16.525,0.200
16.530,0.205
16.535,0.200
16.540,0.190
16.545,0.188
16.550,0.169
16.555,0.152
16.560,0.154
16.565,0.145
16.570,0.132
16.575,0.119
16.580,0.109
16.585,0.107
16.590,0.102
16.595,0.100
16.600,0.100
16.605,0.091
16.610,0.078
16.615,0.065
16.620,0.067
16.625,0.072
16.630,0.060
16.635,0.057
16.640,0.058
16.645,0.051
16.650,0.042
16.655,0.037
16.660,0.035
16.665,0.032
16.670,0.032
16.675,0.013
16.680,0.007
16.685,0.007
16.690,-0.015
16.695,-0.026
16.700,-0.050
16.705,-0.052
16.710,-0.037
16.715,-0.058
16.720,-0.071
16.725,-0.060
16.730,-0.045
16.735,-0.039
16.740,-0.043
16.745,-0.043
16.750,-0.053
16.755,-0.061
16.760,-0.066
16.765,-0.075
16.770,-0.062
16.775,-0.045
16.780,-0.017
16.785,0.019
16.790,0.043
16.795,0.053
16.800,0.045
16.805,0.063
16.810,0.095
16.815,0.108
16.820,0.098
16.825,0.083
16.830,0.113
16.835,0.132
16.840,0.118
16.845,0.112
16.850,0.101
16.855,0.100
16.860,0.094
16.865,0.064
16.870,0.046
16.875,0.037
16.880,0.038
16.885,0.045
16.890,0.044
16.895,0.031
16.900,0.020
16.905,0.035
16.910,0.044
16.915,0.032
16.920,0.019
16.925,0.017
16.930,0.024
16.935,0.011
16.940,-0.004
16.945,-0.002
16.950,-0.001
16.955,-0.004
16.960,0.002
16.965,0.014
16.970,0.015
16.975,-0.007
16.980,-0.012
16.985,0.008
16.990,0.015
16.995,0.008
17.000,-0.001
17.005,0.017
17.010,0.038
17.015,0.011
17.020,-0.021
17.025,-0.017
17.030,-0.001
17.035,-0.014
17.040,-0.035
17.045,-0.050
17.050,-0.043
17.055,-0.016
17.060,-0.019
17.065,-0.027
17.070,-0.013
17.075,-0.006
17.080,-0.024
17.085,-0.049
17.090,-0.056
17.095,-0.053
17.100,-0.086
17.105,-0.126
17.110,-0.136
17.115,-0.134
17.120,-0.126
17.125,-0.125
17.130,-0.138
17.135,-0.166
17.140,-0.177
17.145,-0.132
17.150,-0.086
17.155,-0.059
17.160,-0.037
17.165,-0.021
17.170,-0.015
17.175,-0.030
17.180,-0.023
17.185,0.032
17.190,0.068
17.195,0.070
17.200,0.067
17.205,0.059
17.210,0.054
17.215,0.044
17.220,0.045
17.225,0.050
17.230,0.059
17.235,0.067
17.240,0.053
17.245,0.023
17.250,-0.003
17.255,0.009
17.260,0.029
17.265,0.028
17.270,0.003
17.275,-0.011
17.280,0.007
17.285,-0.044
17.290,-0.225
17.295,-0.560
17.300,-1.052
17.305,-1.499
17.310,-1.533
17.315,-1.062
17.320,-0.379
17.325,0.260
17.330,0.628
17.335,0.643
17.340,0.474
17.345,0.297
17.350,0.228
17.355,0.250
17.360,0.240
17.365,0.214
17.370,0.264
17.375,0.272
17.380,0.199
17.385,0.179
17.390,0.197
17.395,0.182
17.400,0.154
17.405,0.156
17.410,0.155
17.415,0.122
17.420,0.089
17.425,0.080
17.430,0.133
17.435,0.202
17.440,0.194
17.445,0.125
17.450,0.066
17.455,0.069
17.460,0.093
17.465,0.077
17.470,0.060
17.475,0.060
17.480,0.063
17.485,0.052
17.490,0.034
17.495,0.039
17.500,0.031
17.505,0.018
17.510,0.022
17.515,0.018
17.520,0.027
17.525,0.020
17.530,-0.003
17.535,-0.011
17.540,-0.016
17.545,-0.019
17.550,-0.041
17.555,-0.053
17.560,-0.041
17.565,-0.036
17.570,-0.035
17.575,-0.043
17.580,-0.062
17.585,-0.073
17.590,-0.053
17.595,-0.039
17.600,-0.102
17.605,-0.159
17.610,-0.116
17.615,-0.060
17.620,-0.038
17.625,-0.022
17.630,0.003
17.635,0.041
17.640,0.051
17.645,0.039
17.650,0.070
17.655,0.125
17.660,0.134
17.665,0.119
17.670,0.100
17.675,0.056
17.680,0.052
17.685,0.074
17.690,0.076
17.695,0.089
17.700,0.100
17.705,0.103
17.710,0.100
17.715,0.063
17.720,0.033
17.725,0.033
17.730,0.017
17.735,0.014
17.740,0.031
17.745,0.026
17.750,0.029
17.755,0.032
17.760,0.021
17.765,0.038
17.770,0.048
17.775,0.028
17.780,0.035
17.785,0.034
17.790,0.011
17.795,0.008
17.800,0.002
17.805,-0.002
17.810,-0.002
17.815,-0.003
17.820,0.019
17.825,0.020
17.830,0.024
17.835,0.029
17.840,-0.006
17.845,-0.006
17.850,0.000
17.855,0.001
17.860,0.022
17.865,0.007
17.870,-0.009
17.875,-0.016
17.880,-0.031
17.885,-0.020
17.890,0.010
17.895,0.023
17.900,-0.001
17.905,-0.009
17.910,0.000
17.915,-0.013
17.920,-0.005
17.925,0.010
17.930,-0.012
17.935,-0.055
17.940,-0.084
17.945,-0.082
17.950,-0.063
17.955,-0.036
17.960,-0.069
17.965,-0.159
17.970,-0.190
17.975,-0.160
17.980,-0.099
17.985,-0.041
17.990,-0.027
17.995,0.003
18.000,0.031
18.005,0.010
18.010,0.004
18.015,0.050
18.020,0.086
18.025,0.067
18.030,0.047
18.035,0.038
18.040,0.031
18.045,0.039
18.050,0.025
18.055,0.036
18.060,0.046
18.065,0.017
18.070,0.014
18.075,0.034
18.080,0.045
18.085,0.024
18.090,0.012
18.095,0.010
18.100,-0.015
18.105,-0.005
18.110,0.016
18.115,-0.003
18.120,-0.109
18.125,-0.352
18.130,-0.723
18.135,-1.214
18.140,-1.573
18.145,-1.420
18.150,-0.828
18.155,-0.133
18.160,0.419
18.165,0.668
18.170,0.637
18.175,0.448
18.180,0.245
18.185,0.173
18.190,0.203
18.195,0.221
18.200,0.231
18.205,0.231
18.210,0.180
18.215,0.155
18.220,0.172
18.225,0.177
18.230,0.165
18.235,0.141
18.240,0.137
18.245,0.135
18.250,0.108
18.255,0.088
18.260,0.093
18.265,0.103
18.270,0.103
18.275,0.100
18.280,0.096
18.285,0.082
18.290,0.070
18.295,0.065
18.300,0.062
18.305,0.084
18.310,0.088
18.315,0.060
18.320,0.049
18.325,0.041
18.330,0.030
18.335,0.020
18.340,0.020
18.345,0.010
18.350,-0.016
18.355,0.009
18.360,0.027
18.365,-0.001
18.370,-0.042
18.375,-0.055
18.380,-0.020
18.385,-0.018
18.390,-0.034
18.395,-0.039
18.400,-0.048
18.405,-0.065
18.410,-0.088
18.415,-0.080
18.420,-0.060
18.425,-0.075
18.430,-0.099
18.435,-0.109
18.440,-0.098
18.445,-0.093
18.450,-0.093
18.455,-0.044
18.460,-0.019
18.465,-0.009
18.470,0.026
18.475,0.065
18.480,0.096
18.485,0.094
18.490,0.083
18.495,0.085
18.500,0.093
18.505,0.082
18.510,0.067
18.515,0.094
18.520,0.107
18.525,0.050
18.530,0.012
18.535,0.024
18.540,0.048
18.545,0.081
18.550,0.078
18.555,0.059
18.560,0.055
18.565,0.043
18.570,0.042
18.575,0.049
18.580,0.033
18.585,0.009
18.590,-0.004
18.595,-0.007
18.600,0.002
18.605,0.016
18.610,0.017
18.615,-0.008
18.620,-0.034
18.625,-0.013
18.630,0.017
18.635,0.005
18.640,-0.009
18.645,-0.009
18.650,-0.017
18.655,-0.011
18.660,-0.005
18.665,-0.007
18.670,0.002
18.675,-0.009
18.680,-0.015
18.685,0.002
18.690,0.011
18.695,0.004
18.700,-0.013
18.705,-0.012
18.710,-0.005
18.715,0.011
18.720,0.024
18.725,-0.001
18.730,-0.014
18.735,-0.011
18.740,-0.010
18.745,-0.006
18.750,-0.024
18.755,-0.041
18.760,-0.059
18.765,-0.091
18.770,-0.101
18.775,-0.087
18.780,-0.069
18.785,-0.084
18.790,-0.128
18.795,-0.141
18.800,-0.127
18.805,-0.093
18.810,-0.048
18.815,-0.024
18.820,-0.009
18.825,0.003
18.830,0.008
18.835,0.013
18.840,0.031
18.845,0.050
18.850,0.055
18.855,0.074
18.860,0.087
18.865,0.072
18.870,0.044
18.875,0.018
18.880,0.028
18.885,0.040
18.890,0.029
18.895,0.032
18.900,0.033
18.905,0.013
18.910,-0.006
18.915,-0.008
18.920,0.001
18.925,0.010
18.930,0.020
18.935,0.022
18.940,-0.020
18.945,-0.167
18.950,-0.457
18.955,-0.885
18.960,-1.388
18.965,-1.618
18.970,-1.275
18.975,-0.603
18.980,0.071
18.985,0.520
18.990,0.640
18.995,0.567
19.000,0.385
19.005,0.232
19.010,0.219
19.015,0.233
19.020,0.209
19.025,0.194
19.030,0.197
19.035,0.173
19.040,0.156
19.045,0.157
19.050,0.141
19.055,0.149
19.060,0.160
19.065,0.134
19.070,0.116
19.075,0.117
19.080,0.127
19.085,0.118
19.090,0.097
19.095,0.090
19.100,0.085
19.105,0.086
19.110,0.085
19.115,0.077
19.120,0.067
19.125,0.052
19.130,0.058
19.135,0.060
19.140,0.045
19.145,0.042
19.150,0.039
19.155,0.038
19.160,0.023
19.165,0.005
19.170,0.012
19.175,0.012
19.180,0.008
19.185,-0.001
19.190,-0.005
19.195,-0.001
19.200,-0.022
19.205,-0.030
19.210,-0.028
19.215,-0.036
19.220,-0.044
19.225,-0.059
19.230,-0.066
19.235,-0.073
19.240,-0.080
19.245,-0.086
19.250,-0.098
19.255,-0.097
19.260,-0.094
19.265,-0.085
19.270,-0.058
19.275,-0.033
19.280,-0.008
19.285,0.012
19.290,0.030
19.295,0.054
19.300,0.069
19.305,0.085
19.310,0.092
19.315,0.093
19.320,0.103
19.325,0.105
19.330,0.105
19.335,0.099
19.340,0.099
19.345,0.117
19.350,0.114
19.355,0.104
19.360,0.097
19.365,0.089
19.370,0.089
19.375,0.081
19.380,0.071
19.385,0.061
19.390,0.060
19.395,0.062
19.400,0.051
19.405,0.043
19.410,0.032
19.415,0.029
19.420,0.047
19.425,0.056
19.430,0.058
19.435,0.052
19.440,0.042
19.445,0.042
19.450,0.032
19.455,0.019
19.460,0.012
19.465,0.005
19.470,0.001
19.475,-0.002
19.480,0.003
19.485,-0.005
19.490,-0.004
19.495,0.010
19.500,0.009
19.505,0.005
19.510,0.000
19.515,0.001
19.520,0.008
19.525,0.003
19.530,-0.001
19.535,-0.005
19.540,-0.008
19.545,-0.015
19.550,-0.028
19.555,-0.026
19.560,-0.024
19.565,-0.023
19.570,-0.016
19.575,-0.021
19.580,-0.028
19.585,-0.041
19.590,-0.058
19.595,-0.079
19.600,-0.110
19.605,-0.120
19.610,-0.107
19.615,-0.088
19.620,-0.093
19.625,-0.142
19.630,-0.175
19.635,-0.165
19.640,-0.119
19.645,-0.062
19.650,-0.040
19.655,-0.028
19.660,-0.021
19.665,-0.027
19.670,-0.015
19.675,0.013
19.680,0.038
19.685,0.042
19.690,0.039
19.695,0.041
19.700,0.038
19.705,0.041
19.710,0.040
19.715,0.028
19.720,0.020
19.725,0.019
19.730,0.024
19.735,0.019
19.740,0.002
19.745,-0.009
19.750,-0.015
19.755,-0.012
19.760,-0.014
19.765,-0.012
19.770,-0.002
19.775,-0.025
19.780,-0.131
19.785,-0.362
19.790,-0.738
19.795,-1.223
19.800,-1.586
19.805,-1.443
19.810,-0.847
19.815,-0.169
19.820,0.376
19.825,0.605
19.830,0.573
19.835,0.419
19.840,0.231
19.845,0.170
19.850,0.194
19.855,0.188
19.860,0.179
19.865,0.190
19.870,0.184
19.875,0.160
19.880,0.160
19.885,0.145
19.890,0.116
19.895,0.119
19.900,0.127
19.905,0.131
19.910,0.125
19.915,0.115
19.920,0.103
19.925,0.085
19.930,0.083
19.935,0.079
19.940,0.077
19.945,0.073
19.950,0.056
19.955,0.053
19.960,0.058
19.965,0.062
19.970,0.065
19.975,0.058
19.980,0.048
19.985,0.036
19.990,0.031
19.995,0.022
20.000,0.009
20.005,0.011
20.010,0.012
20.015,0.002
20.020,-0.010
20.025,-0.017
20.030,-0.016
20.035,-0.023
20.040,-0.031
20.045,-0.039
20.050,-0.044
20.055,-0.039
20.060,-0.043
20.065,-0.044
20.070,-0.043
20.075,-0.055
20.080,-0.072
20.085,-0.095
20.090,-0.101
20.095,-0.079
20.100,-0.054
20.105,-0.031
20.110,-0.021
20.115,-0.008
20.120,0.008
20.125,0.018
20.130,0.028
20.135,0.038
20.140,0.072
20.145,0.108
20.150,0.122
20.155,0.133
20.160,0.132
20.165,0.123
20.170,0.112
20.175,0.102
20.180,0.102
20.185,0.090
20.190,0.088
20.195,0.098
20.200,0.096
20.205,0.099
20.210,0.094
20.215,0.082
20.220,0.077
20.225,0.065
20.230,0.060
20.235,0.049
20.240,0.038
20.245,0.040
20.250,0.039
20.255,0.042
20.260,0.043
20.265,0.046
20.270,0.045
20.275,0.037
20.280,0.040
20.285,0.033
20.290,0.020
20.295,0.018
20.300,0.013
20.305,0.012
20.310,0.008
20.315,0.004
20.320,0.009
20.325,0.009
20.330,0.013
20.335,0.016
20.340,0.021
20.345,0.021
20.350,0.008
20.355,0.006
20.360,-0.001
20.365,-0.004
20.370,0.007
20.375,0.013
20.380,0.008
20.385,-0.009
20.390,-0.017
20.395,-0.031
20.400,-0.059
20.405,-0.074
20.410,-0.086
20.415,-0.068
20.420,-0.044
20.425,-0.089
20.430,-0.146
20.435,-0.154
20.440,-0.118
20.445,-0.063
20.450,-0.037
20.455,-0.029
20.460,0.000
20.465,0.021
20.470,0.020
20.475,0.039
20.480,0.073
20.485,0.081
20.490,0.076
20.495,0.067
20.500,0.052
20.505,0.050
20.510,0.053
20.515,0.054
20.520,0.054
20.525,0.048
20.530,0.050
20.535,0.044
20.540,0.032
20.545,0.022
20.550,0.008
20.555,0.008
20.560,0.014
20.565,0.024
20.570,0.047
20.575,0.036
20.580,-0.056
20.585,-0.260
20.590,-0.609
20.595,-1.105
20.600,-1.557
20.605,-1.541
20.610,-0.994
20.615,-0.288
20.620,0.324
20.625,0.625
20.630,0.634
20.635,0.516
20.640,0.328
20.645,0.226
20.650,0.225
20.655,0.212
20.660,0.196
20.665,0.206
20.670,0.200
20.675,0.182
20.680,0.189
20.685,0.179
20.690,0.160
20.695,0.155
20.700,0.144
20.705,0.135
20.710,0.124
20.715,0.118
20.720,0.115
20.725,0.105
20.730,0.101
20.735,0.089
20.740,0.081
20.745,0.079
20.750,0.073
20.755,0.074
20.760,0.067
20.765,0.063
20.770,0.065
20.775,0.059
20.780,0.053
20.785,0.039
20.790,0.033
20.795,0.030
20.800,0.016
20.805,0.010
20.810,0.007
20.815,0.008
20.820,0.004
20.825,-0.009
20.830,-0.017
20.835,-0.029
20.840,-0.030
20.845,-0.026
20.850,-0.032
20.855,-0.039
20.860,-0.047
20.865,-0.048
20.870,-0.050
20.875,-0.061
20.880,-0.075
20.885,-0.096
20.890,-0.102
20.895,-0.096
20.900,-0.091
20.905,-0.077
20.910,-0.063
20.915,-0.036
20.920,-0.003
20.925,0.019
20.930,0.040
20.935,0.053
20.940,0.067
20.945,0.080
20.950,0.079
20.955,0.082
20.960,0.084
20.965,0.085
20.970,0.085
20.975,0.083
20.980,0.086
20.985,0.077
20.990,0.071
20.995,0.071
21.000,0.066
21.005,0.065
21.010,0.056
21.015,0.053
21.020,0.054
21.025,0.051
21.030,0.044
21.035,0.027
21.040,0.022
21.045,0.024
21.050,0.018
21.055,0.019
21.060,0.011
21.065,0.006
21.070,0.006
21.075,0.000
21.080,0.005
21.085,0.005
21.090,0.006
21.095,0.010
21.100,0.008
21.105,0.010
21.110,0.006
21.115,0.005
21.120,0.005
21.125,0.000
21.130,0.003
21.135,0.001
21.140,-0.001
21.145,-0.003
21.150,-0.014
21.155,-0.011
21.160,-0.011
21.165,-0.010
21.170,-0.007
21.175,-0.011
21.180,-0.010
21.185,-0.019
21.190,-0.032
21.195,-0.047
21.200,-0.066
21.205,-0.067
21.210,-0.061
21.215,-0.055
21.220,-0.084
21.225,-0.142
21.230,-0.166
21.235,-0.161
21.240,-0.121
21.245,-0.064
21.250,-0.028
21.255,-0.003
21.260,-0.005
21.265,-0.011
21.270,0.009
21.275,0.046
21.280,0.077
21.285,0.079
21.290,0.077
21.295,0.076
21.300,0.064
21.305,0.058
21.310,0.053
21.315,0.049
21.320,0.043
21.325,0.041
21.330,0.043
21.335,0.028
21.340,0.014
21.345,0.007
21.350,0.005
21.355,0.013
21.360,0.008
21.365,0.012
21.370,0.024
21.375,-0.003
21.380,-0.115
21.385,-0.350
21.390,-0.721
21.395,-1.203
21.400,-1.580
21.405,-1.474
21.410,-0.897
21.415,-0.203
21.420,0.375
21.425,0.642
21.430,0.611
21.435,0.447
21.440,0.269
21.445,0.207
21.450,0.231
21.455,0.223
21.460,0.207
21.465,0.223
21.470,0.213
21.475,0.180
21.480,0.178
21.485,0.176
21.490,0.165
21.495,0.157
21.500,0.148
21.505,0.144
21.510,0.135
21.515,0.126
21.520,0.113
21.525,0.100
21.530,0.101
21.535,0.094
21.540,0.089
21.545,0.091
21.550,0.088
21.555,0.083
21.560,0.068
21.565,0.055
21.570,0.044
21.575,0.035
21.580,0.038
21.585,0.037
21.590,0.039
21.595,0.037
21.600,0.023
21.605,0.015
21.610,0.007
21.615,0.001
21.620,-0.011
21.625,-0.022
21.630,-0.018
21.635,-0.030
21.640,-0.040
21.645,-0.046
21.650,-0.057
21.655,-0.055
21.660,-0.060
21.665,-0.068
21.670,-0.075
21.675,-0.087
21.680,-0.093
21.685,-0.100
21.690,-0.104
21.695,-0.103
21.700,-0.101
21.705,-0.084
21.710,-0.065
21.715,-0.038
21.720,-0.009
21.725,0.014
21.730,0.041
21.735,0.057
21.740,0.074
21.745,0.087
21.750,0.087
21.755,0.090
21.760,0.085
21.765,0.083
21.770,0.085
21.775,0.082
21.780,0.085
21.785,0.077
21.790,0.072
21.795,0.074
21.800,0.066
21.805,0.065
21.810,0.061
21.815,0.057
21.820,0.049
21.825,0.044
21.830,0.045
21.835,0.037
21.840,0.037
21.845,0.034
21.850,0.024
21.855,0.024
21.860,0.021
21.865,0.022
21.870,0.021
21.875,0.014
21.880,0.014
21.885,0.008
21.890,0.008
21.895,0.008
21.900,0.001
21.905,0.000
21.910,-0.002
21.915,0.002
21.920,0.007
21.925,0.009
21.930,0.013
21.935,0.005
21.940,0.002
21.945,0.001
21.950,-0.004
21.955,-0.005
21.960,-0.014
21.965,-0.016
21.970,-0.013
21.975,-0.009
21.980,-0.003
21.985,-0.009
21.990,-0.009
21.995,-0.007
22.000,-0.010
22.005,-0.009
22.010,-0.011
22.015,-0.012
22.020,-0.030
22.025,-0.063
22.030,-0.080
22.035,-0.088
22.040,-0.080
22.045,-0.067
22.050,-0.079
22.055,-0.126
22.060,-0.169
22.065,-0.156
22.070,-0.106
22.075,-0.050
22.080,-0.014
22.085,-0.009
22.090,-0.001
22.095,0.001
22.100,0.014
22.105,0.050
22.110,0.067
22.115,0.061
22.120,0.049
22.125,0.051
22.130,0.064
22.135,0.059
22.140,0.052
22.145,0.046
22.150,0.040
22.155,0.039
22.160,0.037
22.165,0.036
22.170,0.023
22.175,0.011
22.180,0.000
22.185,-0.015
22.190,-0.006
22.195,0.007
22.200,0.016
22.205,0.003
22.210,-0.094
22.215,-0.298
22.220,-0.654
22.225,-1.140
22.230,-1.537
22.235,-1.482
22.240,-0.932
22.245,-0.254
22.250,0.321
22.255,0.628
22.260,0.634
22.265,0.500
22.270,0.311
22.275,0.220
22.280,0.240
22.285,0.209
22.290,0.174
22.295,0.191
22.300,0.197
22.305,0.182
22.310,0.169
22.315,0.167
22.320,0.158
22.325,0.155
22.330,0.159
22.335,0.141
22.340,0.123
22.345,0.113
22.350,0.104
22.355,0.101
22.360,0.091
22.365,0.086
22.370,0.081
22.375,0.081
22.380,0.095
22.385,0.092
22.390,0.088
22.395,0.077
22.400,0.059
22.405,0.052
22.410,0.041
22.415,0.037
22.420,0.029
22.425,0.020
22.430,0.024
22.435,0.019
22.440,0.016
22.445,0.015
22.450,0.010
22.455,0.006
22.460,-0.007
22.465,-0.018
22.470,-0.027
22.475,-0.032
22.480,-0.032
22.485,-0.043
22.490,-0.045
22.495,-0.054
22.500,-0.068
22.505,-0.068
22.510,-0.073
22.515,-0.083
22.520,-0.094
22.525,-0.090
22.530,-0.076
22.535,-0.070
22.540,-0.055
22.545,-0.033
22.550,-0.013
22.555,0.005
22.560,0.022
22.565,0.058
22.570,0.074
22.575,0.072
22.580,0.076
22.585,0.078
22.590,0.093
22.595,0.102
22.600,0.103
22.605,0.109
22.610,0.094
22.615,0.079
22.620,0.070
22.625,0.064
22.630,0.065
22.635,0.051
22.640,0.048
22.645,0.052
22.650,0.049
22.655,0.047
22.660,0.045
22.665,0.050
22.670,0.044
22.675,0.028
22.680,0.024
22.685,0.012
22.690,0.012
22.695,0.017
22.700,0.014
22.705,0.022
22.710,0.021
22.715,0.013
22.720,0.007
22.725,0.002
22.730,0.000
22.735,-0.005
22.740,-0.002
22.745,-0.001
22.750,0.003
22.755,0.010
22.760,0.004
22.765,0.007
22.770,0.003
22.775,-0.006
22.780,-0.005
22.785,-0.012
22.790,-0.012
22.795,-0.011
22.800,-0.011
22.805,-0.004
22.810,-0.005
22.815,0.000
22.820,0.005
22.825,0.001
22.830,-0.005
22.835,-0.021
22.840,-0.033
22.845,-0.046
22.850,-0.066
22.855,-0.077
22.860,-0.081
22.865,-0.075
22.870,-0.067
22.875,-0.083
22.880,-0.125
22.885,-0.155
22.890,-0.135
22.895,-0.085
22.900,-0.038
22.905,-0.014
22.910,-0.006
22.915,0.002
22.920,0.002
22.925,0.018
22.930,0.047
22.935,0.057
22.940,0.060
22.945,0.051
22.950,0.041
22.955,0.045
22.960,0.044
22.965,0.042
22.970,0.036
22.975,0.037
22.980,0.047
22.985,0.032
22.990,0.013
22.995,0.008
23.000,0.009
23.005,0.013
23.010,0.014
23.015,0.020
23.020,0.036
23.025,0.048
23.030,0.000
23.035,-0.168
23.040,-0.461
23.045,-0.904
23.050,-1.406
23.055,-1.603
23.060,-1.248
23.065,-0.573
23.070,0.098
23.075,0.536
23.080,0.647
23.085,0.566
23.090,0.389
23.095,0.228
23.100,0.206
23.105,0.216
23.110,0.190
23.115,0.191
23.120,0.189
23.125,0.174
23.130,0.169
23.135,0.159
23.140,0.147
23.145,0.136
23.150,0.138
23.155,0.144
23.160,0.134
23.165,0.127
23.170,0.116
23.175,0.104
23.180,0.098
23.185,0.089
23.190,0.086
23.195,0.081
23.200,0.079
23.205,0.079
23.210,0.072
23.215,0.070
23.220,0.061
23.225,0.058
23.230,0.057
23.235,0.040
23.240,0.037
23.245,0.036
23.250,0.030
23.255,0.023
23.260,0.013
23.265,0.015
23.270,0.009
23.275,-0.001
23.280,-0.004
23.285,-0.012
23.290,-0.017
23.295,-0.022
23.300,-0.021
23.305,-0.023
23.310,-0.040
23.315,-0.050
23.320,-0.060
23.325,-0.064
23.330,-0.067
23.335,-0.081
23.340,-0.083
23.345,-0.085
23.350,-0.090
23.355,-0.079
23.360,-0.061
23.365,-0.035
23.370,-0.014
23.375,0.006
23.380,0.029
23.385,0.043
23.390,0.060
23.395,0.069
23.400,0.079
23.405,0.087
23.410,0.087
23.415,0.096
23.420,0.096
23.425,0.093
23.430,0.092
23.435,0.079
23.440,0.072
23.445,0.068
23.450,0.064
23.455,0.061
23.460,0.053
23.465,0.049
23.470,0.044
23.475,0.049
23.480,0.055
23.485,0.047
23.490,0.044
23.495,0.038
23.500,0.033
23.505,0.032
23.510,0.021
23.515,0.021
23.520,0.020
23.525,0.013
23.530,0.007
23.535,-0.002
23.540,0.001
23.545,0.003
23.550,0.003
23.555,0.005
23.560,0.004
23.565,0.012
23.570,0.009
23.575,0.007
23.580,0.009
23.585,0.002
23.590,0.003
23.595,0.001
23.600,0.000
23.605,0.006
23.610,0.005
23.615,0.007
23.620,0.000
23.625,-0.002
23.630,0.003
23.635,-0.004
23.640,-0.001
23.645,0.000
23.650,-0.002
23.655,-0.001
23.660,-0.005
23.665,-0.007
23.670,-0.027
23.675,-0.052
23.680,-0.068
23.685,-0.081
23.690,-0.075
23.695,-0.062
23.700,-0.065
23.705,-0.098
23.710,-0.139
23.715,-0.132
23.720,-0.100
23.725,-0.062
23.730,-0.025
23.735,-0.017
23.740,-0.010
23.745,-0.006
23.750,0.007
23.755,0.041
23.760,0.065
23.765,0.069
23.770,0.059
23.775,0.054
23.780,0.056
23.785,0.048
23.790,0.046
23.795,0.041
23.800,0.036
23.805,0.040
23.810,0.037
23.815,0.029
23.820,0.015
23.825,0.005
23.830,0.005
23.835,0.003
23.840,0.007
23.845,0.006
23.850,0.011
23.855,-0.008
23.860,-0.116
23.865,-0.332
23.870,-0.703
23.875,-1.186
23.880,-1.555
23.885,-1.458
23.890,-0.883
23.895,-0.200
23.900,0.363
23.905,0.630
23.910,0.598
23.915,0.445
23.920,0.264
23.925,0.200
23.930,0.231
23.935,0.214
23.940,0.198
23.945,0.210
23.950,0.204
23.955,0.184
23.960,0.180
23.965,0.181
23.970,0.155
23.975,0.142
23.980,0.143
23.985,0.127
23.990,0.120
23.995,0.118
24.000,0.113
24.005,0.108
24.010,0.100
24.015,0.096
24.020,0.085
24.025,0.079
24.030,0.079
24.035,0.067
24.040,0.058
24.045,0.053
24.050,0.053
24.055,0.052
24.060,0.046
24.065,0.045
24.070,0.036
24.075,0.034
24.080,0.035
24.085,0.023
24.090,0.015
24.095,0.005
24.100,-0.005
24.105,-0.009
24.110,-0.015
24.115,-0.018
24.120,-0.028
24.125,-0.035
24.130,-0.037
24.135,-0.045
24.140,-0.048
24.145,-0.056
24.150,-0.065
24.155,-0.073
24.160,-0.085
24.165,-0.092
24.170,-0.107
24.175,-0.113
24.180,-0.102
24.185,-0.088
24.190,-0.061
24.195,-0.036
24.200,-0.014
24.205,0.009
24.210,0.031
24.215,0.057
24.220,0.072
24.225,0.076
24.230,0.081
24.235,0.081
24.240,0.083
24.245,0.078
24.250,0.072
24.255,0.068
24.260,0.061
24.265,0.059
24.270,0.050
24.275,0.057
24.280,0.067
24.285,0.057
24.290,0.048
24.295,0.039
24.300,0.038
24.305,0.037
24.310,0.025
24.315,0.020
24.320,0.011
24.325,0.016
24.330,0.032
24.335,0.034
24.340,0.034
24.345,0.028
24.350,0.025
24.355,0.027
24.360,0.026
24.365,0.023
24.370,0.009
24.375,-0.002
24.380,-0.005
24.385,-0.009
24.390,-0.005
24.395,-0.008
24.400,-0.009
24.405,0.002
24.410,0.017
24.415,0.026
24.420,0.013
24.425,0.000
24.430,-0.011
24.435,-0.018
24.440,-0.007
24.445,0.002
24.450,0.009
24.455,0.008
24.460,0.002
24.465,-0.001
24.470,-0.015
24.475,-0.018
24.480,-0.009
24.485,-0.013
24.490,-0.015
24.495,-0.024
24.500,-0.026
24.505,-0.017
24.510,-0.016
24.515,-0.017
24.520,-0.028
24.525,-0.028
24.530,-0.017
24.535,-0.014
24.540,-0.015
24.545,-0.020
24.550,-0.016
24.555,-0.024
24.560,-0.052
24.565,-0.073
24.570,-0.090
24.575,-0.097
24.580,-0.097
24.585,-0.081
24.590,-0.064
24.595,-0.102
24.600,-0.148
24.605,-0.156
24.610,-0.126
24.615,-0.065
24.620,-0.027
24.625,-0.006
24.630,-0.003
24.635,-0.019
24.640,-0.003
24.645,0.033
24.650,0.057
24.655,0.057
24.660,0.052
24.665,0.060
24.670,0.054
24.675,0.043
24.680,0.040
24.685,0.036
24.690,0.035
24.695,0.026
24.700,0.019
24.705,0.017
24.710,0.014
24.715,0.016
24.720,0.013
24.725,0.015
24.730,0.014
24.735,0.008
24.740,0.024
24.745,0.016
24.750,-0.072
24.755,-0.270
24.760,-0.616
24.765,-1.093
24.770,-1.522
24.775,-1.504
24.780,-0.965
24.785,-0.268
24.790,0.332
24.795,0.629
24.800,0.636
24.805,0.512
24.810,0.319
24.815,0.218
24.820,0.219
24.825,0.206
24.830,0.194
24.835,0.202
24.840,0.196
24.845,0.178
24.850,0.187
24.855,0.192
24.860,0.170
24.865,0.158
24.870,0.146
24.875,0.136
24.880,0.130
24.885,0.122
24.890,0.126
24.895,0.123
24.900,0.115
24.905,0.100
24.910,0.084
24.915,0.081
24.920,0.073
24.925,0.072
24.930,0.077
24.935,0.068
24.940,0.067
24.945,0.062
24.950,0.057
24.955,0.055
24.960,0.044
24.965,0.041
24.970,0.035
24.975,0.027
24.980,0.022
24.985,0.013
24.990,0.010
24.995,-0.003
25.000,-0.012
25.005,-0.014
25.010,-0.013
25.015,-0.005
25.020,-0.014
25.025,-0.022
25.030,-0.026
25.035,-0.041
25.040,-0.049
25.045,-0.063
25.050,-0.068
25.055,-0.072
25.060,-0.084
25.065,-0.075
25.070,-0.069
25.075,-0.064
25.080,-0.057
25.085,-0.054
25.090,-0.027
25.095,0.001
25.100,0.016
25.105,0.030
25.110,0.047
25.115,0.069
25.120,0.085
25.125,0.095
25.130,0.092
25.135,0.088
25.140,0.097
25.145,0.096
25.150,0.086
25.155,0.069
25.160,0.056
25.165,0.058
25.170,0.057
25.175,0.062
25.180,0.066
25.185,0.060
25.190,0.055
25.195,0.042
25.200,0.035
25.205,0.030
25.210,0.027
25.215,0.032
25.220,0.019
25.225,0.008
25.230,0.009
25.235,0.010
25.240,0.020
25.245,0.021
25.250,0.016
25.255,0.009
25.260,0.000
25.265,-0.002
25.270,-0.007
25.275,-0.003
25.280,0.000
25.285,-0.002
25.290,0.005
25.295,0.008
25.300,0.014
25.305,0.008
25.310,-0.006
25.315,-0.006
25.320,-0.002
25.325,0.010
25.330,0.012
25.335,0.005
25.340,0.002
25.345,-0.001
25.350,0.007
25.355,0.009
25.360,0.001
25.365,-0.011
25.370,-0.023
25.375,-0.007
25.380,0.005
25.385,0.002
25.390,0.002
25.395,-0.009
25.400,-0.022
25.405,-0.044
25.410,-0.074
25.415,-0.081
25.420,-0.076
25.425,-0.063
25.430,-0.068
25.435,-0.111
25.440,-0.140
25.445,-0.122
25.450,-0.076
25.455,-0.037
25.460,-0.014
25.465,-0.004
25.470,-0.012
25.475,-0.007
25.480,0.025
25.485,0.058
25.490,0.073
25.495,0.067
25.500,0.065
25.505,0.064
25.510,0.056
25.515,0.046
25.520,0.030
25.525,0.027
25.530,0.022
25.535,0.013
25.540,0.013
25.545,0.011
25.550,0.016
25.555,0.017
25.560,0.005
25.565,-0.001
25.570,-0.003
25.575,0.014
25.580,0.022
25.585,-0.042
25.590,-0.211
25.595,-0.523
25.600,-0.972
25.605,-1.446
25.610,-1.582
25.615,-1.166
25.620,-0.491
25.625,0.170
25.630,0.579
25.635,0.647
25.640,0.549
25.645,0.362
25.650,0.228
25.655,0.222
25.660,0.221
25.665,0.200
25.670,0.194
25.675,0.198
25.680,0.188
25.685,0.173
25.690,0.170
25.695,0.160
25.700,0.154
25.705,0.150
25.710,0.140
25.715,0.133
25.720,0.124
25.725,0.123
25.730,0.114
25.735,0.102
25.740,0.098
25.745,0.084
25.750,0.077
25.755,0.075
25.760,0.071
25.765,0.075
25.770,0.073
25.775,0.072
25.780,0.068
25.785,0.058
25.790,0.053
25.795,0.045
25.800,0.041
25.805,0.034
25.810,0.026
25.815,0.021
25.820,0.004
25.825,-0.001
25.830,-0.004
25.835,-0.012
25.840,-0.016
25.845,-0.025
25.850,-0.021
25.855,-0.023
25.860,-0.031
25.865,-0.031
25.870,-0.041
25.875,-0.047
25.880,-0.055
25.885,-0.062
25.890,-0.067
25.895,-0.083
25.900,-0.090
25.905,-0.090
25.910,-0.084
25.915,-0.065
25.920,-0.049
25.925,-0.021
25.930,0.003
25.935,0.017
25.940,0.041
25.945,0.059
25.950,0.074
25.955,0.079
25.960,0.082
25.965,0.092
25.970,0.094
25.975,0.097
25.980,0.096
25.985,0.093
25.990,0.092
25.995,0.082
26.000,0.077
26.005,0.067
26.010,0.054
26.015,0.051
26.020,0.046
26.025,0.049
26.030,0.049
26.035,0.042
26.040,0.037
26.045,0.030
26.050,0.028
26.055,0.019
26.060,0.016
26.065,0.021
26.070,0.017
26.075,0.027
26.080,0.031
26.085,0.019
26.090,0.014
26.095,0.007
26.100,0.005
26.105,0.000
26.110,-0.003
26.115,0.000
26.120,-0.004
26.125,0.003
26.130,0.006
26.135,0.000
26.140,0.002
26.145,0.002
26.150,0.006
26.155,0.006
26.160,0.002
26.165,0.003
26.170,0.000
26.175,0.002
26.180,-0.003
26.185,-0.010
26.190,-0.008
26.195,-0.010
26.200,-0.007
26.205,-0.008
26.210,-0.011
26.215,-0.007
26.220,-0.019
26.225,-0.024
26.230,-0.022
26.235,-0.020
26.240,-0.017
26.245,-0.021
26.250,-0.024
26.255,-0.042
26.260,-0.069
26.265,-0.085
26.270,-0.091
26.275,-0.074
26.280,-0.063
26.285,-0.091
26.290,-0.138
26.295,-0.155
26.300,-0.120
26.305,-0.076
26.310,-0.038
26.315,-0.014
26.320,-0.008
26.325,-0.004
26.330,-0.001
26.335,0.022
26.340,0.055
26.345,0.063
26.350,0.060
26.355,0.051
26.360,0.047
26.365,0.050
26.370,0.044
26.375,0.042
26.380,0.037
26.385,0.032
26.390,0.033
26.395,0.026
26.400,0.020
26.405,0.013
26.410,0.008
26.415,0.005
26.420,-0.003
26.425,0.002
26.430,0.009
26.435,-0.019
26.440,-0.129
26.445,-0.353
26.450,-0.722
26.455,-1.210
26.460,-1.566
26.465,-1.433
26.470,-0.851
26.475,-0.158
26.480,0.407
26.485,0.655
26.490,0.603
26.495,0.428
26.500,0.258
26.505,0.203
26.510,0.232
26.515,0.221
26.520,0.198
26.525,0.217
26.530,0.212
26.535,0.188
26.540,0.186
26.545,0.180
26.550,0.165
26.555,0.153
26.560,0.154
26.565,0.146
26.570,0.128
26.575,0.129
26.580,0.120
26.585,0.108
26.590,0.108
26.595,0.103
26.600,0.105
26.605,0.102
26.610,0.094
26.615,0.083
26.620,0.065
26.625,0.063
26.630,0.061
26.635,0.055
26.640,0.048
26.645,0.039
26.650,0.043
26.655,0.043
26.660,0.042
26.665,0.035
26.670,0.015
26.675,0.005
26.680,0.000
26.685,0.000
26.690,0.000
26.695,-0.014
26.700,-0.025
26.705,-0.035
26.710,-0.037
26.715,-0.039
26.720,-0.055
26.725,-0.063
26.730,-0.070
26.735,-0.075
26.740,-0.082
26.745,-0.094
26.750,-0.099
26.755,-0.105
26.760,-0.099
26.765,-0.085
26.770,-0.068
26.775,-0.035
26.780,-0.007
26.785,0.012
26.790,0.031
26.795,0.048
26.800,0.072
26.805,0.082
26.810,0.088
26.815,0.098
26.820,0.094
26.825,0.094
26.830,0.091
26.835,0.087
26.840,0.087
26.845,0.079
26.850,0.073
26.855,0.060
26.860,0.049
26.865,0.049
26.870,0.040
26.875,0.040
26.880,0.040
26.885,0.040
26.890,0.043
26.895,0.037
26.900,0.035
26.905,0.031
26.910,0.029
26.915,0.032
26.920,0.023
26.925,0.013
26.930,0.002
26.935,0.000
26.940,0.005
26.945,0.004
26.950,0.007
26.955,0.004
26.960,0.003
26.965,0.010
26.970,0.007
26.975,0.011
26.980,0.012
26.985,0.007
26.990,0.004
26.995,-0.001
27.000,0.001
27.005,-0.001
27.010,-0.001
27.015,0.000
27.020,-0.008
27.025,-0.006
27.030,-0.008
27.035,-0.011
27.040,-0.011
27.045,-0.014
27.050,-0.010
27.055,-0.017
27.060,-0.022
27.065,-0.021
27.070,-0.029
27.075,-0.023
27.080,-0.020
27.085,-0.023
27.090,-0.023
27.095,-0.030
27.100,-0.029
27.105,-0.035
27.110,-0.039
27.115,-0.038
27.120,-0.052
27.125,-0.071
27.130,-0.096
27.135,-0.108
27.140,-0.105
27.145,-0.092
27.150,-0.068
27.155,-0.076
27.160,-0.097
27.165,-0.104
27.170,-0.090
27.175,-0.049
27.180,-0.019
27.185,0.001
27.190,0.009
27.195,0.000
27.200,0.017
27.205,0.050
27.210,0.081
27.215,0.096
27.220,0.083
27.225,0.082
27.230,0.079
27.235,0.065
27.240,0.061
27.245,0.057
27.250,0.050
27.255,0.039
27.260,0.036
27.265,0.036
27.270,0.031
27.275,0.035
27.280,0.033
27.285,0.027
27.290,0.022
27.295,0.022
27.300,0.035
27.305,0.020
27.310,-0.060
27.315,-0.239
27.320,-0.570
27.325,-1.029
27.330,-1.461
27.335,-1.490
27.340,-0.996
27.345,-0.319
27.350,0.291
27.355,0.625
27.360,0.647
27.365,0.524
27.370,0.334
27.375,0.221
27.380,0.226
27.385,0.221
27.390,0.196
27.395,0.202
27.400,0.212
27.405,0.193
27.410,0.185
27.415,0.183
27.420,0.162
27.425,0.150
27.430,0.142
27.435,0.130
27.440,0.122
27.445,0.117
27.450,0.115
27.455,0.107
27.460,0.098
27.465,0.093
27.470,0.089
27.475,0.089
27.480,0.083
27.485,0.071
27.490,0.065
27.495,0.062
27.500,0.059
27.505,0.040
27.510,0.028
27.515,0.036
27.520,0.035
27.525,0.030
27.530,0.018
27.535,-0.001
27.540,-0.017
27.545,-0.044
27.550,-0.056
27.555,-0.045
27.560,-0.031
27.565,-0.035
27.570,-0.065
27.575,-0.079
27.580,-0.058
27.585,-0.028
27.590,-0.021
27.595,-0.036
27.600,-0.061
27.605,-0.094
27.610,-0.112
27.615,-0.119
27.620,-0.127
27.625,-0.122
27.630,-0.105
27.635,-0.088
27.640,-0.085
27.645,-0.082
27.650,-0.061
27.655,-0.040
27.660,-0.022
27.665,-0.004
27.670,0.018
27.675,0.040
27.680,0.045
27.685,0.046
27.690,0.045
27.695,0.043
27.700,0.046
27.705,0.049
27.710,0.058
27.715,0.049
27.720,0.033
27.725,0.046
27.730,0.048
27.735,0.016
27.740,-0.012
27.745,-0.027
27.750,-0.048
27.755,-0.082
27.760,-0.131
27.765,-0.207
27.770,-0.304
27.775,-0.417
27.780,-0.535
27.785,-0.660
27.790,-0.832
27.795,-0.991
27.800,-1.094
27.805,-1.203
27.810,-1.305
27.815,-1.384
27.820,-1.384
27.825,-1.206
27.830,-0.911
27.835,-0.636
27.840,-0.420
27.845,-0.275
27.850,-0.239
27.855,-0.275
27.860,-0.315
27.865,-0.304
27.870,-0.208
27.875,-0.108
27.880,-0.030
27.885,0.026
27.890,0.047
27.895,0.115
27.900,0.273
27.905,0.414
27.910,0.419
27.915,0.424
27.920,0.500
27.925,0.565
27.930,0.593
27.935,0.569
27.940,0.535
27.945,0.508
27.950,0.464
27.955,0.415
27.960,0.369
27.965,0.321
27.970,0.289
27.975,0.295
27.980,0.311
27.985,0.290
27.990,0.239
27.995,0.217
28.000,0.232
28.005,0.261
28.010,0.302
28.015,0.328
28.020,0.338
28.025,0.339
28.030,0.333
28.035,0.358
28.040,0.399
28.045,0.412
28.050,0.393
28.055,0.365
28.060,0.356
28.065,0.353
28.070,0.351
28.075,0.345
28.080,0.317
28.085,0.292
28.090,0.279
28.095,0.270
28.100,0.265
28.105,0.250
28.110,0.232
28.115,0.222
28.120,0.214
28.125,0.217
28.130,0.228
28.135,0.222
28.140,0.139
28.145,-0.038
28.150,-0.348
28.155,-0.821
28.160,-1.219
28.165,-1.226
28.170,-0.795
28.175,-0.134
28.180,0.482
28.185,0.836
28.190,0.897
28.195,0.780
28.200,0.586
28.205,0.468
28.210,0.465
28.215,0.468
28.220,0.466
28.225,0.464
28.230,0.429
28.235,0.406
28.240,0.413
28.245,0.411
28.250,0.397
28.255,0.376
28.260,0.351
28.265,0.330
28.270,0.311
28.275,0.291
28.280,0.266
28.285,0.238
28.290,0.215
28.295,0.191
28.300,0.164
28.305,0.129
28.310,0.088
28.315,0.043
28.320,0.008
28.325,-0.008
28.330,-0.028
28.335,-0.052
28.340,-0.076
28.345,-0.098
28.350,-0.108
28.355,-0.125
28.360,-0.138
28.365,-0.142
28.370,-0.148
28.375,-0.153
28.380,-0.163
28.385,-0.166
28.390,-0.163
28.395,-0.169
28.400,-0.175
28.405,-0.182
28.410,-0.183
28.415,-0.177
28.420,-0.177
28.425,-0.182
28.430,-0.195
28.435,-0.211
28.440,-0.220
28.445,-0.222
28.450,-0.222
28.455,-0.229
28.460,-0.228
28.465,-0.224
28.470,-0.213
28.475,-0.190
28.480,-0.166
28.485,-0.137
28.490,-0.108
28.495,-0.079
28.500,-0.053
28.505,-0.048
28.510,-0.043
28.515,-0.027
28.520,-0.015
28.525,-0.003
28.530,0.001
28.535,0.003
28.540,0.002
28.545,-0.002
28.550,0.002
28.555,0.002
28.560,0.000
28.565,-0.005
28.570,-0.017
28.575,-0.027
28.580,-0.039
28.585,-0.054
28.590,-0.077
28.595,-0.107
28.600,-0.133
28.605,-0.154
28.610,-0.158
28.615,-0.163
28.620,-0.173
28.625,-0.174
28.630,-0.168
28.635,-0.158
28.640,-0.154
28.645,-0.160
28.650,-0.174
28.655,-0.199
28.660,-0.212
28.665,-0.217
28.670,-0.227
28.675,-0.239
28.680,-0.251
28.685,-0.251
28.690,-0.244
28.695,-0.233
28.700,-0.216
28.705,-0.200
28.710,-0.181
28.715,-0.168
28.720,-0.158
28.725,-0.145
28.730,-0.138
28.735,-0.123
28.740,-0.109
28.745,-0.096
28.750,-0.075
28.755,-0.063
28.760,-0.050
28.765,-0.036
28.770,-0.031
28.775,-0.036
28.780,-0.052
28.785,-0.059
28.790,-0.054
28.795,-0.034
28.800,-0.005
28.805,-0.009
28.810,-0.049
28.815,-0.080
28.820,-0.059
28.825,-0.003
28.830,0.053
28.835,0.096
28.840,0.118
28.845,0.134
28.850,0.145
28.855,0.165
28.860,0.212
28.865,0.242
28.870,0.239
28.875,0.229
28.880,0.224
28.885,0.225
28.890,0.223
28.895,0.220
28.900,0.220
28.905,0.214
28.910,0.211
28.915,0.210
28.920,0.210
28.925,0.204
28.930,0.176
28.935,0.165
28.940,0.183
28.945,0.198
28.950,0.214
28.955,0.206
28.960,0.142
28.965,-0.024
28.970,-0.356
28.975,-0.831
28.980,-1.260
28.985,-1.335
28.990,-0.944
28.995,-0.285
29.000,0.361
29.005,0.757
29.010,0.829
29.015,0.691
29.020,0.500
29.025,0.391
29.030,0.379
29.035,0.373
29.040,0.353
29.045,0.353
29.050,0.348
29.055,0.317
29.060,0.299
29.065,0.289
29.070,0.265
29.075,0.251
29.080,0.243
29.085,0.234
29.090,0.220
29.095,0.206
29.100,0.193
29.105,0.179
29.110,0.180
29.115,0.179
29.120,0.168
29.125,0.159
29.130,0.148
29.135,0.139
29.140,0.127
29.145,0.116
29.150,0.105
29.155,0.085
29.160,0.076
29.165,0.070
29.170,0.060
29.175,0.049
29.180,0.038
29.185,0.037
29.190,0.037
29.195,0.030
29.200,0.022
29.205,0.005
29.210,-0.006
29.215,-0.015
29.220,-0.020
29.225,-0.020
29.230,-0.032
29.235,-0.045
29.240,-0.059
29.245,-0.070
29.250,-0.078
29.255,-0.094
29.260,-0.102
29.265,-0.107
29.270,-0.115
29.275,-0.121
29.280,-0.123
29.285,-0.107
29.290,-0.084
29.295,-0.062
29.300,-0.041
29.305,-0.025
29.310,-0.005
29.315,0.010
29.320,0.016
29.325,0.026
29.330,0.030
29.335,0.033
29.340,0.032
29.345,0.027
29.350,0.026
29.355,0.021
29.360,0.020
29.365,0.016
29.370,0.009
29.375,0.000
29.380,-0.011
29.385,-0.015
29.390,-0.023
29.395,-0.028
29.400,-0.028
29.405,-0.039
29.410,-0.047
29.415,-0.049
29.420,-0.055
29.425,-0.055
29.430,-0.051
29.435,-0.046
29.440,-0.049
29.445,-0.055
29.450,-0.057
29.455,-0.060
29.460,-0.058
29.465,-0.059
29.470,-0.062
29.475,-0.066
29.480,-0.067
29.485,-0.059
29.490,-0.050
29.495,-0.043
29.500,-0.039
29.505,-0.048
29.510,-0.049
29.515,-0.049
29.520,-0.051
29.525,-0.042
29.530,-0.036
29.535,-0.027
29.540,-0.022
29.545,-0.022
29.550,-0.022
29.555,-0.028
29.560,-0.024
29.565,-0.019
29.570,-0.014
29.575,-0.012
29.580,-0.018
29.585,-0.018
29.590,-0.021
29.595,-0.024
29.600,-0.020
29.605,-0.023
29.610,-0.021
29.615,-0.016
29.620,-0.025
29.625,-0.050
29.630,-0.087
29.635,-0.111
29.640,-0.121
29.645,-0.119
29.650,-0.114
29.655,-0.143
29.660,-0.188
29.665,-0.206
29.670,-0.179
29.675,-0.125
29.680,-0.082
29.685,-0.062
29.690,-0.065
29.695,-0.074
29.700,-0.062
29.705,-0.025
29.710,0.027
29.715,0.061
29.720,0.068
29.725,0.067
29.730,0.075
29.735,0.096
29.740,0.111
29.745,0.114
29.750,0.101
29.755,0.081
29.760,0.078
29.765,0.073
29.770,0.064
29.775,0.059
29.780,0.047
29.785,0.036
29.790,0.031
29.795,0.036
29.800,0.048
29.805,0.031
29.810,-0.045
29.815,-0.212
29.820,-0.512
29.825,-0.963
29.830,-1.433
29.835,-1.533
29.840,-1.097
29.845,-0.439
29.850,0.173
29.855,0.546
29.860,0.607
29.865,0.489
29.870,0.288
29.875,0.154
29.880,0.158
29.885,0.164
29.890,0.133
29.895,0.130
29.900,0.120
29.905,0.086
29.910,0.078
29.915,0.077
29.920,0.062
29.925,0.046
29.930,0.038
29.935,0.025
29.940,-0.007
29.945,-0.022
29.950,-0.022
29.955,-0.032
29.960,-0.037
29.965,-0.037
29.970,-0.028
29.975,-0.014
29.980,-0.009
29.985,-0.007
29.990,-0.007
29.995,-0.004
30.000,-0.006
30.005,-0.017
30.010,-0.021
30.015,-0.024
30.020,-0.034
30.025,-0.041
30.030,-0.038
30.035,-0.029
30.040,-0.025
30.045,-0.023
30.050,-0.027
30.055,-0.035
30.060,-0.036
30.065,-0.041
30.070,-0.048
30.075,-0.058
30.080,-0.066
30.085,-0.064
30.090,-0.072
30.095,-0.084
30.100,-0.084
30.105,-0.086
30.110,-0.090
30.115,-0.101
30.120,-0.113
30.125,-0.119
30.130,-0.124
30.135,-0.117
30.140,-0.110
30.145,-0.109
30.150,-0.101
30.155,-0.082
30.160,-0.051
30.165,-0.032
30.170,-0.032
30.175,-0.046
30.180,-0.062
30.185,-0.054
30.190,-0.043
30.195,-0.027
30.200,-0.010
30.205,-0.003
30.210,0.015
30.215,0.021
30.220,0.010
30.225,-0.005
30.230,-0.017
30.235,-0.009
30.240,-0.009
30.245,-0.015
30.250,-0.021
30.255,-0.031
30.260,-0.027
30.265,-0.018
30.270,-0.007
30.275,0.005
30.280,0.010
30.285,0.011
30.290,0.003
30.295,0.002
30.300,0.010
30.305,0.009
30.310,0.013
30.315,0.008
30.320,0.002
30.325,0.009
30.330,0.008
30.335,0.010
30.340,0.014
30.345,0.017
30.350,0.022
30.355,0.018
30.360,0.014
30.365,0.013
30.370,0.017
30.375,0.019
30.380,0.020
30.385,0.030
30.390,0.028
30.395,0.022
30.400,0.024
30.405,0.018
30.410,0.016
30.415,0.020
30.420,0.022
30.425,0.030
30.430,0.040
30.435,0.046
30.440,0.045
30.445,0.040
30.450,0.021
30.455,-0.003
30.460,-0.015
30.465,-0.022
30.470,-0.011
30.475,0.013
30.480,0.013
30.485,-0.027
30.490,-0.078
30.495,-0.083
30.500,-0.041
30.505,0.011
30.510,0.055
30.515,0.075
30.520,0.076
30.525,0.071
30.530,0.076
30.535,0.100
30.540,0.116
30.545,0.121
30.550,0.149
30.555,0.171
30.560,0.152
30.565,0.120
30.570,0.139
30.575,0.195
30.580,0.199
30.585,0.162
30.590,0.118
30.595,0.082
30.600,0.071
30.605,0.083
30.610,0.102
30.615,0.103
30.620,0.090
30.625,0.089
30.630,0.109
30.635,0.088
30.640,-0.045
30.645,-0.293
30.650,-0.695
30.655,-1.179
30.660,-1.434
30.665,-1.277
30.670,-0.771
30.675,-0.105
30.680,0.438
30.685,0.684
30.690,0.652
30.695,0.479
30.700,0.325
30.705,0.273
30.710,0.275
30.715,0.277
30.720,0.299
30.725,0.313
30.730,0.312
30.735,0.332
30.740,0.331
30.745,0.279
30.750,0.234
30.755,0.230
30.760,0.234
30.765,0.205
30.770,0.149
30.775,0.115
30.780,0.119
30.785,0.125
30.790,0.097
30.795,0.056
30.800,0.029
30.805,-0.008
30.810,-0.040
30.815,-0.048
30.820,-0.047
30.825,-0.034
30.830,-0.022
30.835,-0.017
30.840,-0.001
30.845,0.028
30.850,0.049
30.855,0.051
30.860,0.053
30.865,0.058
30.870,0.065
30.875,0.070
30.880,0.074
30.885,0.080
30.890,0.084
30.895,0.085
30.900,0.068
30.905,0.043
30.910,0.034
30.915,0.030
30.920,0.010
30.925,-0.035
30.930,-0.077
30.935,-0.097
30.940,-0.114
30.945,-0.133
30.950,-0.155
30.955,-0.169
30.960,-0.169
30.965,-0.166
30.970,-0.150
30.975,-0.127
30.980,-0.108
30.985,-0.078
30.990,-0.047
30.995,-0.017
31.000,0.008
31.005,0.025
31.010,0.049
31.015,0.070
31.020,0.084
31.025,0.094
31.030,0.100
31.035,0.110
31.040,0.112
31.045,0.110
31.050,0.111
31.055,0.115
31.060,0.120
31.065,0.121
31.070,0.122
31.075,0.118
31.080,0.115
31.085,0.117
31.090,0.111
31.095,0.110
31.100,0.110
31.105,0.106
31.110,0.105
31.115,0.098
31.120,0.093
31.125,0.093
31.130,0.083
31.135,0.075
31.140,0.071
31.145,0.074
31.150,0.072
31.155,0.057
31.160,0.046
31.165,0.034
31.170,0.039
31.175,0.059
31.180,0.084
31.185,0.116
31.190,0.135
31.195,0.142
31.200,0.140
31.205,0.128
31.210,0.122
31.215,0.118
31.220,0.114
31.225,0.108
31.230,0.103
31.235,0.099
31.240,0.087
31.245,0.085
31.250,0.089
31.255,0.088
31.260,0.097
31.265,0.103
31.270,0.101
31.275,0.094
31.280,0.078
31.285,0.056
31.290,0.025
31.295,0.002
31.300,-0.002
31.305,0.005
31.310,0.000
31.315,-0.044
31.320,-0.084
31.325,-0.074
31.330,-0.030
31.335,0.015
31.340,0.028
31.345,0.038
31.350,0.046
31.355,0.041
31.360,0.056
31.365,0.079
31.370,0.098
31.375,0.103
31.380,0.095
31.385,0.092
31.390,0.079
31.395,0.065
31.400,0.053
31.405,0.039
31.410,0.030
31.415,0.017
31.420,0.007
31.425,-0.006
31.430,-0.020
31.435,-0.026
31.440,-0.040
31.445,-0.049
31.450,-0.044
31.455,-0.038
31.460,-0.030
31.465,-0.078
31.470,-0.221
31.475,-0.478
31.480,-0.876
31.485,-1.357
31.490,-1.632
31.495,-1.383
31.500,-0.759
31.505,-0.091
31.510,0.409
31.515,0.572
31.520,0.496
31.525,0.329
31.530,0.180
31.535,0.169
31.540,0.194
31.545,0.180
31.550,0.179
31.555,0.184
31.560,0.173
31.565,0.153
31.570,0.148
31.575,0.133
31.580,0.107
31.585,0.104
31.590,0.099
31.595,0.092
31.600,0.092
31.605,0.086
31.610,0.079
31.615,0.068
31.620,0.064
31.625,0.058
31.630,0.048
31.635,0.047
31.640,0.042
31.645,0.041
31.650,0.043
31.655,0.038
31.660,0.038
31.665,0.032
31.670,0.026
31.675,0.017
31.680,-0.005
31.685,-0.023
31.690,-0.022
31.695,0.002
31.700,0.014
31.705,0.006
31.710,0.002
31.715,-0.001
31.720,-0.001
31.725,-0.008
31.730,-0.022
31.735,-0.029
31.740,-0.038
31.745,-0.042
31.750,-0.044
31.755,-0.051
31.760,-0.054
31.765,-0.066
31.770,-0.071
31.775,-0.071
31.780,-0.076
31.785,-0.079
31.790,-0.082
31.795,-0.066
31.800,-0.038
31.805,-0.016
31.810,0.009
31.815,0.026
31.820,0.035
31.825,0.037
31.830,0.038
31.835,0.042
31.840,0.027
31.845,0.005
31.850,-0.015
31.855,-0.031
31.860,-0.044
31.865,-0.057
31.870,-0.053
31.875,-0.047
31.880,-0.040
31.885,-0.027
31.890,-0.034
31.895,-0.044
31.900,-0.047
31.905,-0.051
31.910,-0.052
31.915,-0.064
31.920,-0.082
31.925,-0.096
31.930,-0.100
31.935,-0.099
31.940,-0.110
31.945,-0.108
31.950,-0.103
31.955,-0.107
31.960,-0.104
31.965,-0.108
31.970,-0.110
31.975,-0.104
31.980,-0.103
31.985,-0.103
31.990,-0.105
31.995,-0.102
32.000,-0.089
32.005,-0.076
32.010,-0.061
32.015,-0.057
32.020,-0.060
32.025,-0.066
32.030,-0.064
32.035,-0.051
32.040,-0.051
32.045,-0.054
32.050,-0.053
32.055,-0.043
32.060,-0.021
32.065,-0.002
32.070,0.010
32.075,0.005
32.080,-0.006
32.085,-0.005
32.090,-0.010
32.095,-0.010
32.100,-0.013
32.105,-0.023
32.110,-0.034
32.115,-0.060
32.120,-0.096
32.125,-0.126
32.130,-0.125
32.135,-0.100
32.140,-0.090
32.145,-0.107
32.150,-0.154
32.155,-0.181
32.160,-0.153
32.165,-0.110
32.170,-0.068
32.175,-0.036
32.180,-0.007
32.185,0.012
32.190,0.008
32.195,0.020
32.200,0.038
32.205,0.049
32.210,0.059
32.215,0.055
32.220,0.060
32.225,0.057
32.230,0.038
32.235,0.034
32.240,0.028
32.245,0.021
32.250,0.018
32.255,0.010
32.260,-0.004
32.265,-0.012
32.270,0.007
32.275,0.015
32.280,0.014
32.285,0.022
32.290,0.029
32.295,0.046
32.300,-0.003
32.305,-0.169
32.310,-0.456
32.315,-0.902
32.320,-1.409
32.325,-1.623
32.330,-1.288
32.335,-0.632
32.340,0.031
32.345,0.489
32.350,0.610
32.355,0.524
32.360,0.347
32.365,0.192
32.370,0.187
32.375,0.195
32.380,0.161
32.385,0.166
32.390,0.165
32.395,0.145
32.400,0.135
32.405,0.131
32.410,0.131
32.415,0.131
32.420,0.129
32.425,0.114
32.430,0.105
32.435,0.111
32.440,0.104
32.445,0.102
32.450,0.106
32.455,0.107
32.460,0.106
32.465,0.099
32.470,0.108
32.475,0.121
32.480,0.134
32.485,0.149
32.490,0.160
32.495,0.183
32.500,0.187
32.505,0.176
32.510,0.173
32.515,0.172
32.520,0.178
32.525,0.162
32.530,0.124
32.535,0.093
32.540,0.065
32.545,0.043
32.550,0.005
32.555,-0.034
32.560,-0.049
32.565,-0.057
32.570,-0.053
32.575,-0.051
32.580,-0.042
32.585,-0.019
32.590,-0.008
32.595,0.002
32.600,-0.005
32.605,-0.021
32.610,-0.018
32.615,-0.017
32.620,-0.013
32.625,-0.012
32.630,-0.003
32.635,0.025
32.640,0.047
32.645,0.068
32.650,0.095
32.655,0.128
32.660,0.167
32.665,0.189
32.670,0.198
32.675,0.195
32.680,0.190
32.685,0.183
32.690,0.162
32.695,0.162
32.700,0.171
32.705,0.178
32.710,0.183
32.715,0.162
32.720,0.148
32.725,0.137
32.730,0.122
32.735,0.117
32.740,0.100
32.745,0.091
32.750,0.081
32.755,0.061
32.760,0.055
32.765,0.057
32.770,0.066
32.775,0.068
32.780,0.063
32.785,0.065
32.790,0.060
32.795,0.063
32.800,0.061
32.805,0.038
32.810,0.015
32.815,0.001
32.820,0.001
32.825,0.002
32.830,0.006
32.835,0.010
32.840,0.004
32.845,0.003
32.850,-0.003
32.855,-0.006
32.860,-0.004
32.865,-0.001
32.870,0.022
32.875,0.033
32.880,0.028
32.885,0.021
32.890,-0.003
32.895,-0.013
32.900,-0.018
32.905,-0.026
32.910,-0.022
32.915,-0.022
32.920,-0.028
32.925,-0.053
32.930,-0.088
32.935,-0.109
32.940,-0.116
32.945,-0.097
32.950,-0.084
32.955,-0.111
32.960,-0.153
32.965,-0.178
32.970,-0.166
32.975,-0.135
32.980,-0.096
32.985,-0.060
32.990,-0.043
32.995,-0.031
33.000,-0.033
33.005,-0.024
33.010,0.004
33.015,0.025
33.020,0.043
33.025,0.057
33.030,0.072
33.035,0.062
33.040,0.021
33.045,0.001
33.050,-0.009
33.055,-0.007
33.060,0.001
33.065,-0.014
33.070,-0.017
33.075,-0.019
33.080,-0.030
33.085,-0.038
33.090,-0.048
33.095,-0.035
33.100,0.005
33.105,0.027
33.110,-0.050
33.115,-0.264
33.120,-0.630
33.125,-1.142
33.130,-1.596
33.135,-1.608
33.140,-1.101
33.145,-0.397
33.150,0.238
33.155,0.589
33.160,0.617
33.165,0.484
33.170,0.294
33.175,0.178
33.180,0.189
33.185,0.196
33.190,0.166
33.195,0.159
33.200,0.139
33.205,0.126
33.210,0.152
33.215,0.152
33.220,0.129
33.225,0.114
33.230,0.115
33.235,0.122
33.240,0.105
33.245,0.084
33.250,0.070
33.255,0.071
33.260,0.072
33.265,0.058
33.270,0.040
33.275,0.021
33.280,0.030
33.285,0.046
33.290,0.037
33.295,0.045
33.300,0.050
33.305,0.038
33.310,0.040
33.315,0.046
33.320,0.049
33.325,0.031
33.330,0.000
33.335,-0.024
33.340,-0.038
33.345,-0.033
33.350,-0.032
33.355,-0.032
33.360,-0.035
33.365,-0.053
33.370,-0.055
33.375,-0.055
33.380,-0.046
33.385,-0.022
33.390,-0.038
33.395,-0.064
33.400,-0.067
33.405,-0.076
33.410,-0.099
33.415,-0.125
33.420,-0.141
33.425,-0.132
33.430,-0.104
33.435,-0.080
33.440,-0.059
33.445,-0.029
33.450,-0.016
33.455,-0.002
33.460,0.028
33.465,0.040
33.470,0.046
33.475,0.051
33.480,0.056
33.485,0.064
33.490,0.065
33.495,0.080
33.500,0.078
33.505,0.065
33.510,0.065
33.515,0.054
33.520,0.048
33.525,0.033
33.530,0.023
33.535,0.029
33.540,0.018
33.545,0.006
33.550,0.010
33.555,0.018
33.560,0.008
33.565,-0.016
33.570,-0.028
33.575,-0.043
33.580,-0.041
33.585,-0.034
33.590,-0.049
33.595,-0.046
33.600,-0.051
33.605,-0.061
33.610,-0.059
33.615,-0.073
33.620,-0.075
33.625,-0.075
33.630,-0.073
33.635,-0.068
33.640,-0.069
33.645,-0.062
33.650,-0.060
33.655,-0.056
33.660,-0.049
33.665,-0.049
33.670,-0.039
33.675,-0.036
33.680,-0.036
33.685,-0.034
33.690,-0.036
33.695,-0.019
33.700,-0.005
33.705,-0.005
33.710,-0.005
33.715,-0.007
33.720,-0.006
33.725,-0.023
33.730,-0.052
33.735,-0.075
33.740,-0.086
33.745,-0.068
33.750,-0.040
33.755,-0.017
33.760,-0.032
33.765,-0.093
33.770,-0.114
33.775,-0.089
33.780,-0.046
33.785,0.002
33.790,0.021
33.795,0.042
33.800,0.061
33.805,0.060
33.810,0.076
33.815,0.115
33.820,0.150
33.825,0.155
33.830,0.152
33.835,0.153
33.840,0.140
33.845,0.133
33.850,0.128
33.855,0.123
33.860,0.120
33.865,0.117
33.870,0.125
33.875,0.127
33.880,0.126
33.885,0.118
33.890,0.098
33.895,0.093
33.900,0.096
33.905,0.103
33.910,0.109
33.915,0.063
33.920,-0.076
33.925,-0.339
33.930,-0.730
33.935,-1.207
33.940,-1.496
33.945,-1.252
33.950,-0.630
33.955,0.042
33.960,0.554
33.965,0.718
33.970,0.640
33.975,0.469
33.980,0.304
33.985,0.270
33.990,0.282
33.995,0.257
34.000,0.252
34.005,0.261
34.010,0.239
34.015,0.208
34.020,0.201
34.025,0.183
34.030,0.166
34.035,0.175
34.040,0.179
34.045,0.172
34.050,0.155
34.055,0.146
34.060,0.138
34.065,0.122
34.070,0.115
34.075,0.098
34.080,0.089
34.085,0.091
34.090,0.081
34.095,0.075
34.100,0.072
34.105,0.070
34.110,0.070
34.115,0.062
34.120,0.057
34.125,0.043
34.130,0.035
34.135,0.036
34.140,0.034
34.145,0.032
34.150,0.010
34.155,-0.004
34.160,0.001
34.165,-0.001
34.170,-0.003
34.175,-0.014
34.180,-0.021
34.185,-0.025
34.190,-0.050
34.195,-0.073
34.200,-0.086
34.205,-0.082
34.210,-0.080
34.215,-0.082
34.220,-0.080
34.225,-0.100
34.230,-0.109
34.235,-0.101
34.240,-0.095
34.245,-0.074
34.250,-0.051
34.255,-0.031
34.260,-0.005
34.265,0.019
34.270,0.049
34.275,0.072
34.280,0.085
34.285,0.088
34.290,0.081
34.295,0.082
34.300,0.080
34.305,0.080
34.310,0.079
34.315,0.066
34.320,0.064
34.325,0.064
34.330,0.064
34.335,0.063
34.340,0.055
34.345,0.054
34.350,0.052
34.355,0.051
34.360,0.042
34.365,0.028
34.370,0.024
34.375,0.018
34.380,0.027
34.385,0.028
34.390,0.006
34.395,0.000
34.400,0.003
34.405,0.004
34.410,-0.001
34.415,-0.007
34.420,-0.006
34.425,-0.010
34.430,-0.006
34.435,-0.003
34.440,-0.012
34.445,-0.012
34.450,-0.010
34.455,-0.007
34.460,-0.017
34.465,-0.029
34.470,-0.020
34.475,-0.010
34.480,-0.002
34.485,-0.008
34.490,-0.027
34.495,-0.026
34.500,-0.028
34.505,-0.028
34.510,-0.029
34.515,-0.052
34.520,-0.068
34.525,-0.080
34.530,-0.078
34.535,-0.068
34.540,-0.069
34.545,-0.076
34.550,-0.126
34.555,-0.166
34.560,-0.156
34.565,-0.122
34.570,-0.076
34.575,-0.051
34.580,-0.030
34.585,-0.010
34.590,-0.008
34.595,0.008
34.600,0.034
34.605,0.056
34.610,0.067
34.615,0.065
34.620,0.072
34.625,0.065
34.630,0.052
34.635,0.053
34.640,0.049
34.645,0.045
34.650,0.045
34.655,0.046
34.660,0.036
34.665,0.021
34.670,0.010
34.675,-0.007
34.680,-0.001
34.685,0.014
34.690,0.020
34.695,0.042
34.700,0.033
34.705,-0.056
34.710,-0.244
34.715,-0.586
34.720,-1.060
34.725,-1.506
34.730,-1.535
34.735,-1.023
34.740,-0.332
34.745,0.284
34.750,0.613
34.755,0.632
34.760,0.508
34.765,0.310
34.770,0.201
34.775,0.208
34.780,0.206
34.785,0.188
34.790,0.184
34.795,0.179
34.800,0.156
34.805,0.151
34.810,0.157
34.815,0.146
34.820,0.139
34.825,0.131
34.830,0.123
34.835,0.116
34.840,0.107
34.845,0.106
34.850,0.099
34.855,0.095
34.860,0.085
34.865,0.070
34.870,0.067
34.875,0.059
34.880,0.056
34.885,0.053
34.890,0.043
34.895,0.044
34.900,0.045
34.905,0.046
34.910,0.043
34.915,0.030
34.920,0.027
34.925,0.019
34.930,0.013
34.935,0.010
34.940,-0.003
34.945,-0.011
34.950,-0.018
34.955,-0.021
34.960,-0.025
34.965,-0.031
34.970,-0.032
34.975,-0.042
34.980,-0.048
34.985,-0.056
34.990,-0.067
34.995,-0.062
35.000,-0.068
35.005,-0.077
35.010,-0.084
35.015,-0.097
35.020,-0.094
35.025,-0.087
35.030,-0.071
35.035,-0.049
35.040,-0.034
35.045,-0.008
35.050,0.017
35.055,0.042
35.060,0.062
35.065,0.075
35.070,0.086
35.075,0.082
35.080,0.086
35.085,0.094
35.090,0.093
35.095,0.094
35.100,0.088
35.105,0.084
35.110,0.082
35.115,0.077
35.120,0.076
35.125,0.065
35.130,0.058
35.135,0.058
35.140,0.054
35.145,0.053
35.150,0.044
35.155,0.040
35.160,0.036
35.165,0.029
35.170,0.031
35.175,0.025
35.180,0.023
35.185,0.026
35.190,0.024
35.195,0.025
35.200,0.017
35.205,0.009
35.210,0.005
35.215,0.005
35.220,0.011
35.225,0.007
35.230,0.005
35.235,0.003
35.240,-0.004
35.245,0.002
35.250,0.005
35.255,0.005
35.260,0.004
35.265,0.003
35.270,0.007
35.275,-0.001
35.280,-0.005
35.285,-0.005
35.290,-0.006
35.295,0.001
35.300,-0.003
35.305,-0.012
35.310,-0.028
35.315,-0.051
35.320,-0.066
35.325,-0.080
35.330,-0.073
35.335,-0.054
35.340,-0.072
35.345,-0.120
35.350,-0.154
35.355,-0.142
35.360,-0.103
35.365,-0.066
35.370,-0.035
35.375,-0.021
35.380,-0.017
35.385,-0.016
35.390,0.003
35.395,0.049
35.400,0.075
35.405,0.077
35.410,0.071
35.415,0.067
35.420,0.067
35.425,0.057
35.430,0.055
35.435,0.052
35.440,0.042
35.445,0.041
35.450,0.036
35.455,0.034
35.460,0.026
35.465,0.016
35.470,0.018
35.475,0.015
35.480,0.018
35.485,0.021
35.490,0.020
35.495,0.012
35.500,-0.068
35.505,-0.252
35.510,-0.575
35.515,-1.031
35.520,-1.477
35.525,-1.562
35.530,-1.099
35.535,-0.408
35.540,0.227
35.545,0.611
35.550,0.639
35.555,0.501
35.560,0.313
35.565,0.201
35.570,0.228
35.575,0.230
35.580,0.201
35.585,0.207
35.590,0.203
35.595,0.189
35.600,0.184
35.605,0.190
35.610,0.180
35.615,0.164
35.620,0.158
35.625,0.137
35.630,0.128
35.635,0.129
35.640,0.123
35.645,0.120
35.650,0.109
35.655,0.105
35.660,0.095
35.665,0.081
35.670,0.078
35.675,0.063
35.680,0.058
35.685,0.062
35.690,0.055
35.695,0.049
35.700,0.043
35.705,0.047
35.710,0.044
35.715,0.032
35.720,0.026
35.725,0.010
35.730,0.000
35.735,-0.004
35.740,-0.010
35.745,-0.012
35.750,-0.022
35.755,-0.028
35.760,-0.034
35.765,-0.040
35.770,-0.039
35.775,-0.048
35.780,-0.054
35.785,-0.064
35.790,-0.082
35.795,-0.084
35.800,-0.088
35.805,-0.095
35.810,-0.105
35.815,-0.108
35.820,-0.092
35.825,-0.079
35.830,-0.056
35.835,-0.030
35.840,-0.011
35.845,0.013
35.850,0.032
35.855,0.054
35.860,0.067
35.865,0.071
35.870,0.082
35.875,0.083
35.880,0.086
35.885,0.087
35.890,0.085
35.895,0.092
35.900,0.082
35.905,0.073
35.910,0.066
35.915,0.061
35.920,0.063
35.925,0.049
35.930,0.043
35.935,0.049
35.940,0.048
35.945,0.050
35.950,0.040
35.955,0.032
35.960,0.029
35.965,0.023
35.970,0.022
35.975,0.011
35.980,0.010
35.985,0.013
35.990,0.008
35.995,0.007
36.000,0.000
36.005,-0.001
36.010,0.000
36.015,-0.001
36.020,0.007
36.025,0.003
36.030,0.009
36.035,0.019
36.040,0.015
36.045,0.013
36.050,0.006
36.055,0.004
36.060,0.003
36.065,-0.005
36.070,-0.010
36.075,-0.018
36.080,-0.016
36.085,-0.015
36.090,-0.018
36.095,-0.014
36.100,-0.016
36.105,-0.014
36.110,-0.022
36.115,-0.042
36.120,-0.064
36.125,-0.094
36.130,-0.097
36.135,-0.085
36.140,-0.069
36.145,-0.057
36.150,-0.094
36.155,-0.148
36.160,-0.163
36.165,-0.128
36.170,-0.071
36.175,-0.039
36.180,-0.020
36.185,-0.002
36.190,0.002
36.195,0.006
36.200,0.029
36.205,0.067
36.210,0.084
36.215,0.078
36.220,0.071
36.225,0.061
36.230,0.053
36.235,0.038
36.240,0.029
36.245,0.035
36.250,0.042
36.255,0.052
36.260,0.046
36.265,0.033
36.270,0.023
36.275,0.003
36.280,-0.003
36.285,0.001
36.290,0.001
36.295,0.010
36.300,0.011
36.305,-0.029
36.310,-0.165
36.315,-0.430
36.320,-0.844
36.325,-1.343
36.330,-1.577
36.335,-1.262
36.340,-0.601
36.345,0.077
36.350,0.538
36.355,0.665
36.360,0.568
36.365,0.384
36.370,0.232
36.375,0.203
36.380,0.217
36.385,0.191
36.390,0.185
36.395,0.196
36.400,0.175
36.405,0.160
36.410,0.162
36.415,0.158
36.420,0.148
36.425,0.137
36.430,0.131
36.435,0.122
36.440,0.119
36.445,0.113
36.450,0.095
36.455,0.085
36.460,0.083
36.465,0.082
36.470,0.081
36.475,0.072
36.480,0.075
36.485,0.082
36.490,0.077
36.495,0.067
36.500,0.050
36.505,0.040
36.510,0.029
36.515,0.021
36.520,0.019
36.525,0.010
36.530,0.010
36.535,0.004
36.540,0.000
36.545,0.006
36.550,0.006
36.555,0.005
36.560,-0.010
36.565,-0.028
36.570,-0.036
36.575,-0.047
36.580,-0.050
36.585,-0.058
36.590,-0.068
36.595,-0.064
36.600,-0.062
36.605,-0.058
36.610,-0.070
36.615,-0.088
36.620,-0.096
36.625,-0.102
36.630,-0.081
36.635,-0.057
36.640,-0.039
36.645,-0.014
36.650,0.008
36.655,0.038
36.660,0.056
36.665,0.069
36.670,0.082
36.675,0.081
36.680,0.088
36.685,0.093
36.690,0.091
36.695,0.089
36.700,0.083
36.705,0.086
36.710,0.081
36.715,0.075
36.720,0.072
36.725,0.057
36.730,0.059
36.735,0.056
36.740,0.048
36.745,0.050
36.750,0.042
36.755,0.040
36.760,0.038
36.765,0.033
36.770,0.032
36.775,0.018
36.780,0.013
36.785,0.016
36.790,0.024
36.795,0.030
36.800,0.024
36.805,0.024
36.810,0.015
36.815,0.007
36.820,0.005
36.825,-0.006
36.830,-0.002
36.835,-0.001
36.840,-0.004
36.845,0.001
36.850,0.001
36.855,0.007
36.860,-0.002
36.865,-0.007
36.870,0.002
36.875,-0.001
36.880,0.004
36.885,0.008
36.890,0.010
36.895,0.012
36.900,0.001
36.905,-0.004
36.910,-0.013
36.915,-0.022
36.920,-0.024
36.925,-0.030
36.930,-0.033
36.935,-0.049
36.940,-0.068
36.945,-0.079
36.950,-0.080
36.955,-0.050
36.960,-0.060
36.965,-0.120
36.970,-0.157
36.975,-0.146
36.980,-0.087
36.985,-0.038
36.990,-0.026
36.995,-0.019
37.000,-0.016
37.005,-0.005
37.010,0.023
37.015,0.063
37.020,0.083
37.025,0.069
37.030,0.070
37.035,0.068
37.040,0.048
37.045,0.035
37.050,0.026
37.055,0.033
37.060,0.039
37.065,0.039
37.070,0.052
37.075,0.046
37.080,0.030
37.085,0.019
37.090,0.010
37.095,0.008
37.100,0.007
37.105,0.025
37.110,0.052
37.115,0.026
37.120,-0.115
37.125,-0.398
37.130,-0.826
37.135,-1.340
37.140,-1.606
37.145,-1.315
37.150,-0.661
37.155,0.032
37.160,0.513
37.165,0.654
37.170,0.595
37.175,0.420
37.180,0.245
37.185,0.205
37.190,0.210
37.195,0.192
37.200,0.190
37.205,0.197
37.210,0.174
37.215,0.161
37.220,0.166
37.225,0.150
37.230,0.138
37.235,0.132
37.240,0.124
37.245,0.119
37.250,0.107
37.255,0.106
37.260,0.104
37.265,0.102
37.270,0.101
37.275,0.084
37.280,0.077
37.285,0.075
37.290,0.068
37.295,0.065
37.300,0.060
37.305,0.060
37.310,0.055
37.315,0.050
37.320,0.046
37.325,0.029
37.330,0.023
37.335,0.019
37.340,0.014
37.345,0.014
37.350,0.005
37.355,0.006
37.360,0.007
37.365,0.004
37.370,0.001
37.375,-0.016
37.380,-0.023
37.385,-0.023
37.390,-0.027
37.395,-0.032
37.400,-0.044
37.405,-0.049
37.410,-0.054
37.415,-0.058
37.420,-0.060
37.425,-0.075
37.430,-0.082
37.435,-0.083
37.440,-0.078
37.445,-0.061
37.450,-0.046
37.455,-0.022
37.460,0.004
37.465,0.032
37.470,0.056
37.475,0.063
37.480,0.076
37.485,0.084
37.490,0.086
37.495,0.087
37.500,0.082
37.505,0.081
37.510,0.076
37.515,0.079
37.520,0.087
37.525,0.077
37.530,0.073
37.535,0.068
37.540,0.064
37.545,0.063
37.550,0.052
37.555,0.049
37.560,0.042
37.565,0.038
37.570,0.036
37.575,0.024
37.580,0.023
37.585,0.023
37.590,0.023
37.595,0.023
37.600,0.016
37.605,0.019
37.610,0.015
37.615,0.015
37.620,0.017
37.625,0.008
37.630,0.008
37.635,0.006
37.640,0.006
37.645,0.010
37.650,0.006
37.655,0.004
37.660,-0.004
37.665,-0.002
37.670,0.010
37.675,0.012
37.680,0.016
37.685,0.010
37.690,0.004
37.695,0.004
37.700,0.000
37.705,0.005
37.710,0.004
37.715,0.004
37.720,0.003
37.725,-0.011
37.730,-0.013
37.735,-0.012
37.740,-0.010
37.745,-0.007
37.750,-0.011
37.755,-0.006
37.760,-0.010
37.765,-0.009
37.770,-0.009
37.775,-0.031
37.780,-0.056
37.785,-0.083
37.790,-0.096
37.795,-0.083
37.800,-0.063
37.805,-0.057
37.810,-0.105
37.815,-0.156
37.820,-0.147
37.825,-0.106
37.830,-0.054
37.835,-0.022
37.840,-0.008
37.845,0.000
37.850,-0.009
37.855,-0.006
37.860,0.016
37.865,0.046
37.870,0.060
37.875,0.057
37.880,0.063
37.885,0.058
37.890,0.050
37.895,0.051
37.900,0.043
37.905,0.041
37.910,0.032
37.915,0.027
37.920,0.030
37.925,0.017
37.930,0.011
37.935,0.003
37.940,-0.004
37.945,-0.004
37.950,-0.003
37.955,0.009
37.960,-0.007
37.965,-0.091
37.970,-0.270
37.975,-0.601
37.980,-1.060
37.985,-1.492
37.990,-1.518
37.995,-1.015
38.000,-0.336
38.005,0.277
38.010,0.612
38.015,0.620
38.020,0.481
38.025,0.287
38.030,0.192
38.035,0.218
38.040,0.219
38.045,0.195
38.050,0.200
38.055,0.203
38.060,0.179
38.065,0.175
38.070,0.178
38.075,0.155
38.080,0.147
38.085,0.149
38.090,0.141
38.095,0.132
38.100,0.121
38.105,0.115
38.110,0.103
38.115,0.098
38.120,0.095
38.125,0.079
38.130,0.077
38.135,0.077
38.140,0.076
38.145,0.075
38.150,0.066
38.155,0.061
38.160,0.050
38.165,0.044
38.170,0.047
38.175,0.039
38.180,0.036
38.185,0.029
38.190,0.020
38.195,0.013
38.200,0.004
38.205,0.004
38.210,-0.003
38.215,-0.008
38.220,-0.014
38.225,-0.029
38.230,-0.032
38.235,-0.037
38.240,-0.043
38.245,-0.049
38.250,-0.062
38.255,-0.069
38.260,-0.083
38.265,-0.090
38.270,-0.089
38.275,-0.096
38.280,-0.092
38.285,-0.090
38.290,-0.082
38.295,-0.062
38.300,-0.042
38.305,-0.014
38.310,0.003
38.315,0.022
38.320,0.047
38.325,0.056
38.330,0.068
38.335,0.073
38.340,0.076
38.345,0.079
38.350,0.075
38.355,0.080
38.360,0.078
38.365,0.079
38.370,0.082
38.375,0.073
38.380,0.070
38.385,0.061
38.390,0.052
38.395,0.050
38.400,0.044
38.405,0.044
38.410,0.037
38.415,0.033
38.420,0.033
38.425,0.024
38.430,0.026
38.435,0.026
38.440,0.027
38.445,0.030
38.450,0.020
38.455,0.013
38.460,0.000
38.465,-0.004
38.470,0.008
38.475,0.014
38.480,0.021
38.485,0.024
38.490,0.022
38.495,0.019
38.500,0.009
38.505,0.007
38.510,0.004
38.515,0.006
38.520,0.008
38.525,-0.005
38.530,-0.004
38.535,0.004
38.540,0.012
38.545,0.010
38.550,-0.005
38.555,-0.006
38.560,-0.001
38.565,0.006
38.570,0.005
38.575,-0.011
38.580,-0.012
38.585,-0.009
38.590,-0.014
38.595,-0.019
38.600,-0.026
38.605,-0.015
38.610,-0.002
38.615,0.004
38.620,0.002
38.625,-0.010
38.630,-0.016
38.635,-0.026
38.640,-0.032
38.645,-0.026
38.650,-0.024
38.655,-0.023
38.660,-0.030
38.665,-0.022
38.670,-0.013
38.675,-0.023
38.680,-0.028
38.685,-0.030
38.690,-0.024
38.695,-0.024
38.700,-0.042
38.705,-0.059
38.710,-0.082
38.715,-0.097
38.720,-0.106
38.725,-0.097
38.730,-0.069
38.735,-0.088
38.740,-0.132
38.745,-0.143
38.750,-0.120
38.755,-0.075
38.760,-0.052
38.765,-0.038
38.770,-0.016
38.775,-0.016
38.780,-0.008
38.785,0.025
38.790,0.056
38.795,0.061
38.800,0.055
38.805,0.061
38.810,0.052
38.815,0.042
38.820,0.042
38.825,0.039
38.830,0.044
38.835,0.042
38.840,0.043
38.845,0.040
38.850,0.018
38.855,0.007
38.860,0.000
38.865,0.002
38.870,0.004
38.875,0.004
38.880,0.026
38.885,0.037
38.890,-0.009
38.895,-0.164
38.900,-0.448
38.905,-0.868
38.910,-1.363
38.915,-1.553
38.920,-1.195
38.925,-0.550
38.930,0.101
38.935,0.531
38.940,0.645
38.945,0.572
38.950,0.385
38.955,0.229
38.960,0.208
38.965,0.216
38.970,0.194
38.975,0.194
38.980,0.206
38.985,0.185
38.990,0.176
38.995,0.179
39.000,0.163
39.005,0.156
39.010,0.144
39.015,0.135
39.020,0.133
39.025,0.120
39.030,0.123
39.035,0.125
39.040,0.113
39.045,0.100
39.050,0.091
39.055,0.093
39.060,0.086
39.065,0.081
39.070,0.081
39.075,0.070
39.080,0.062
39.085,0.053
39.090,0.050
39.095,0.050
39.100,0.045
39.105,0.044
39.110,0.041
39.115,0.042
39.120,0.035
39.125,0.022
39.130,0.018
39.135,0.007
39.140,0.004
39.145,0.004
39.150,-0.005
39.155,-0.010
39.160,-0.022
39.165,-0.021
39.170,-0.011
39.175,-0.021
39.180,-0.032
39.185,-0.046
39.190,-0.058
39.195,-0.065
39.200,-0.074
39.205,-0.077
39.210,-0.084
39.215,-0.082
39.220,-0.068
39.225,-0.048
39.230,-0.018
39.235,0.001
39.240,0.018
39.245,0.029
39.250,0.039
39.255,0.059
39.260,0.067
39.265,0.083
39.270,0.091
39.275,0.079
39.280,0.083
39.285,0.084
39.290,0.077
39.295,0.074
39.300,0.065
39.305,0.064
39.310,0.059
39.315,0.057
39.320,0.060
39.325,0.058
39.330,0.059
39.335,0.048
39.340,0.036
39.345,0.028
39.350,0.022
39.355,0.026
39.360,0.016
39.365,0.009
39.370,0.018
39.375,0.022
39.380,0.026
39.385,0.016
39.390,0.008
39.395,0.007
39.400,-0.003
39.405,-0.004
39.410,-0.006
39.415,0.004
39.420,0.019
39.425,0.019
39.430,0.023
39.435,0.028
39.440,0.032
39.445,0.027
39.450,0.015
39.455,0.015
39.460,0.009
39.465,0.003
39.470,-0.003
39.475,-0.014
39.480,-0.012
39.485,-0.009
39.490,-0.006
39.495,-0.007
39.500,-0.012
39.505,-0.008
39.510,-0.006
39.515,-0.005
39.520,-0.007
39.525,-0.013
39.530,-0.009
39.535,-0.010
39.540,-0.009
39.545,-0.009
39.550,-0.011
39.555,-0.006
39.560,-0.012
39.565,-0.011
39.570,-0.009
39.575,-0.026
39.580,-0.048
39.585,-0.073
39.590,-0.084
39.595,-0.085
39.600,-0.072
39.605,-0.065
39.610,-0.114
39.615,-0.154
39.620,-0.143
39.625,-0.108
39.630,-0.057
39.635,-0.028
39.640,-0.010
39.645,0.004
39.650,-0.004
39.655,0.001
39.660,0.021
39.665,0.048
39.670,0.064
39.675,0.064
39.680,0.067
39.685,0.062
39.690,0.051
39.695,0.043
39.700,0.037
39.705,0.036
39.710,0.029
39.715,0.028
39.720,0.023
39.725,0.017
39.730,0.019
39.735,0.010
39.740,0.002
39.745,-0.003
39.750,0.002
39.755,0.030
39.760,0.014
39.765,-0.091
39.770,-0.309
39.775,-0.690
39.780,-1.190
39.785,-1.570
39.790,-1.450
39.795,-0.863
39.800,-0.168
39.805,0.409
39.810,0.656
39.815,0.624
39.820,0.469
39.825,0.271
39.830,0.202
39.835,0.224
39.840,0.210
39.845,0.197
39.850,0.205
39.855,0.197
39.860,0.172
39.865,0.171
39.870,0.174
39.875,0.164
39.880,0.163
39.885,0.149
39.890,0.132
39.895,0.123
39.900,0.119
39.905,0.114
39.910,0.100
39.915,0.101
39.920,0.101
39.925,0.092
39.930,0.091
39.935,0.084
39.940,0.085
39.945,0.081
39.950,0.072
39.955,0.070
39.960,0.058
39.965,0.051
39.970,0.043
39.975,0.030
39.980,0.027
39.985,0.021
39.990,0.021
39.995,0.017
40.000,0.006
40.005,0.002
40.010,-0.009
40.015,-0.009
40.020,-0.013
40.025,-0.024
40.030,-0.021
40.035,-0.027
40.040,-0.035
40.045,-0.044
40.050,-0.050
40.055,-0.051
40.060,-0.063
40.065,-0.068
40.070,-0.073
40.075,-0.088
40.080,-0.094
40.085,-0.090
40.090,-0.070
40.095,-0.054
40.100,-0.041
40.105,-0.015
40.110,0.002
40.115,0.029
40.120,0.050
40.125,0.057
40.130,0.070
40.135,0.074
40.140,0.081
40.145,0.083
40.150,0.079
40.155,0.082
40.160,0.076
40.165,0.073
40.170,0.071
40.175,0.064
40.180,0.066
40.185,0.060
40.190,0.053
40.195,0.045
40.200,0.039
40.205,0.046
40.210,0.044
40.215,0.046
40.220,0.041
40.225,0.028
40.230,0.026
40.235,0.020
40.240,0.023
40.245,0.022
40.250,0.016
40.255,0.020
40.260,0.011
40.265,0.006
40.270,0.003
40.275,-0.004
40.280,0.001
40.285,0.006
40.290,0.012
40.295,0.008
40.300,0.003
40.305,0.007
40.310,0.005
40.315,0.009
40.320,0.013
40.325,0.009
40.330,0.012
40.335,0.008
40.340,0.006
40.345,0.000
40.350,-0.008
40.355,-0.003
40.360,-0.008
40.365,-0.005
40.370,-0.002
40.375,-0.009
40.380,-0.004
40.385,-0.004
40.390,-0.003
40.395,-0.007
40.400,-0.010
40.405,-0.007
40.410,-0.013
40.415,-0.014
40.420,-0.013
40.425,-0.019
40.430,-0.016
40.435,-0.016
40.440,-0.013
40.445,-0.013
40.450,-0.018
40.455,-0.011
40.460,-0.014
40.465,-0.018
40.470,-0.021
40.475,-0.025
40.480,-0.017
40.485,-0.021
40.490,-0.025
40.495,-0.029
40.500,-0.041
40.505,-0.056
40.510,-0.085
40.515,-0.096
40.520,-0.090
40.525,-0.077
40.530,-0.058
40.535,-0.085
40.540,-0.141
40.545,-0.163
40.550,-0.132
40.555,-0.075
40.560,-0.043
40.565,-0.021
40.570,-0.005
40.575,-0.004
40.580,-0.007
40.585,0.005
40.590,0.044
40.595,0.065
40.600,0.067
40.605,0.071
40.610,0.064
40.615,0.061
40.620,0.058
40.625,0.053
40.630,0.048
40.635,0.037
40.640,0.036
40.645,0.032
40.650,0.026
40.655,0.024
40.660,0.012
40.665,0.007
40.670,0.003
40.675,-0.001
40.680,0.012
40.685,0.018
40.690,-0.020
40.695,-0.160
40.700,-0.421
40.705,-0.815
40.710,-1.293
40.715,-1.536
40.720,-1.255
40.725,-0.629
40.730,0.025
40.735,0.494
40.740,0.642
40.745,0.553
40.750,0.374
40.755,0.221
40.760,0.198
40.765,0.229
40.770,0.210
40.775,0.201
40.780,0.217
40.785,0.201
40.790,0.192
40.795,0.193
40.800,0.179
40.805,0.165
40.810,0.154
40.815,0.150
40.820,0.136
40.825,0.126
40.830,0.124
40.835,0.110
40.840,0.107
40.845,0.101
40.850,0.091
40.855,0.087
40.860,0.080
40.865,0.084
40.870,0.082
40.875,0.068
40.880,0.061
40.885,0.055
40.890,0.054
40.895,0.046
40.900,0.038
40.905,0.033
40.910,0.016
40.915,0.007
40.920,0.004
40.925,0.007
40.930,0.012
40.935,0.009
40.940,0.010
40.945,0.001
40.950,-0.008
40.955,-0.013
40.960,-0.029
40.965,-0.034
40.970,-0.042
40.975,-0.052
40.980,-0.053
40.985,-0.067
40.990,-0.079
40.995,-0.087
41.000,-0.085
41.005,-0.076
41.010,-0.080
41.015,-0.078
41.020,-0.076
41.025,-0.060
41.030,-0.029
41.035,-0.005
41.040,0.020
41.045,0.037
41.050,0.054
41.055,0.073
41.060,0.073
41.065,0.070
41.070,0.069
41.075,0.075
41.080,0.087
41.085,0.085
41.090,0.085
41.095,0.082
41.100,0.085
41.105,0.090
41.110,0.073
41.115,0.066
41.120,0.061
41.125,0.050
41.130,0.048
41.135,0.042
41.140,0.040
41.145,0.033
41.150,0.029
41.155,0.033
41.160,0.024
41.165,0.025
41.170,0.031
41.175,0.033
41.180,0.030
41.185,0.021
41.190,0.024
41.195,0.019
41.200,0.008
41.205,0.002
41.210,-0.009
41.215,-0.002
41.220,0.003
41.225,0.002
41.230,0.008
41.235,0.007
41.240,0.019
41.245,0.021
41.250,0.008
41.255,-0.002
41.260,-0.013
41.265,-0.010
41.270,-0.008
41.275,-0.010
41.280,-0.006
41.285,-0.002
41.290,0.006
41.295,0.005
41.300,0.003
41.305,0.005
41.310,-0.008
41.315,-0.014
41.320,-0.020
41.325,-0.023
41.330,-0.012
41.335,-0.006
41.340,-0.002
41.345,-0.006
41.350,-0.006
41.355,-0.003
41.360,-0.018
41.365,-0.022
41.370,-0.018
41.375,-0.014
41.380,-0.014
41.385,-0.024
41.390,-0.021
41.395,-0.021
41.400,-0.023
41.405,-0.020
41.410,-0.024
41.415,-0.019
41.420,-0.022
41.425,-0.022
41.430,-0.014
41.435,-0.020
41.440,-0.019
41.445,-0.025
41.450,-0.033
41.455,-0.028
41.460,-0.030
41.465,-0.022
41.470,-0.023
41.475,-0.044
41.480,-0.066
41.485,-0.089
41.490,-0.096
41.495,-0.094
41.500,-0.079
41.505,-0.089
41.510,-0.144
41.515,-0.158
41.520,-0.123
41.525,-0.073
41.530,-0.030
41.535,-0.018
41.540,-0.011
41.545,-0.012
41.550,-0.008
41.555,0.022
41.560,0.046
41.565,0.063
41.570,0.068
41.575,0.064
41.580,0.061
41.585,0.050
41.590,0.055
41.595,0.059
41.600,0.055
41.605,0.051
41.610,0.034
41.615,0.022
41.620,0.009
41.625,0.002
41.630,0.009
41.635,0.014
41.640,0.023
41.645,0.029
41.650,0.039
41.655,0.058
41.660,0.024
41.665,-0.099
41.670,-0.351
41.675,-0.760
41.680,-1.261
41.685,-1.562
41.690,-1.331
41.695,-0.713
41.700,-0.035
41.705,0.477
41.710,0.657
41.715,0.618
41.720,0.461
41.725,0.274
41.730,0.215
41.735,0.216
41.740,0.196
41.745,0.195
41.750,0.204
41.755,0.195
41.760,0.180
41.765,0.176
41.770,0.161
41.775,0.150
41.780,0.150
41.785,0.140
41.790,0.131
41.795,0.121
41.800,0.118
41.805,0.119
41.810,0.109
41.815,0.107
41.820,0.101
41.825,0.090
41.830,0.083
41.835,0.070
41.840,0.061
41.845,0.059
41.850,0.071
41.855,0.080
41.860,0.065
41.865,0.059
41.870,0.059
41.875,0.054
41.880,0.050
41.885,0.040
41.890,0.033
41.895,0.026
41.900,0.023
41.905,0.020
41.910,0.008
41.915,0.006
41.920,0.000
41.925,-0.008
41.930,-0.016
41.935,-0.031
41.940,-0.034
41.945,-0.040
41.950,-0.046
41.955,-0.050
41.960,-0.059
41.965,-0.059
41.970,-0.064
41.975,-0.073
41.980,-0.080
41.985,-0.084
41.990,-0.072
41.995,-0.061
42.000,-0.042
42.005,-0.016
42.010,-0.001
42.015,0.021
42.020,0.040
42.025,0.052
42.030,0.063
42.035,0.064
42.040,0.071
42.045,0.072
42.050,0.078
42.055,0.083
42.060,0.076
42.065,0.077
42.070,0.072
42.075,0.068
42.080,0.061
42.085,0.048
42.090,0.049
42.095,0.045
42.100,0.041
42.105,0.040
42.110,0.026
42.115,0.025
42.120,0.028
42.125,0.029
42.130,0.027
42.135,0.017
42.140,0.013
42.145,0.009
42.150,0.013
42.155,0.017
42.160,0.008
42.165,0.008
42.170,0.006
42.175,0.005
42.180,0.005
42.185,0.000
42.190,0.002
42.195,-0.001
42.200,-0.003
42.205,0.001
42.210,-0.002
42.215,-0.001
42.220,-0.001
42.225,-0.001
42.230,0.006
42.235,0.006
42.240,0.004
42.245,-0.004
42.250,-0.002
42.255,0.008
42.260,0.005
42.265,0.006
42.270,0.003
42.275,0.001
42.280,0.001
42.285,-0.002
42.290,0.003
42.295,-0.002
42.300,-0.005
42.305,-0.007
42.310,-0.017
42.315,-0.014
42.320,-0.012
42.325,-0.007
42.330,-0.006
42.335,-0.017
42.340,-0.018
42.345,-0.024
42.350,-0.022
42.355,-0.013
42.360,-0.018
42.365,-0.018
42.370,-0.021
42.375,-0.025
42.380,-0.024
42.385,-0.029
42.390,-0.024
42.395,-0.026
42.400,-0.031
42.405,-0.039
42.410,-0.061
42.415,-0.078
42.420,-0.089
42.425,-0.084
42.430,-0.064
42.435,-0.080
42.440,-0.128
42.445,-0.160
42.450,-0.131
42.455,-0.073
42.460,-0.040
42.465,-0.023
42.470,-0.016
42.475,-0.013
42.480,-0.011
42.485,0.002
42.490,0.040
42.495,0.058
42.500,0.058
42.505,0.056
42.510,0.052
42.515,0.058
42.520,0.054
42.525,0.047
42.530,0.040
42.535,0.032
42.540,0.039
42.545,0.032
42.550,0.022
42.555,0.020
42.560,0.008
42.565,0.005
42.570,0.000
42.575,0.002
42.580,0.016
42.585,0.023
42.590,-0.020
42.595,-0.175
42.600,-0.456
42.605,-0.880
42.610,-1.370
42.615,-1.563
42.620,-1.215
42.625,-0.564
42.630,0.088
42.635,0.531
42.640,0.651
42.645,0.556
42.650,0.370
42.655,0.224
42.660,0.215
42.665,0.234
42.670,0.207
42.675,0.206
42.680,0.217
42.685,0.196
42.690,0.186
42.695,0.184
42.700,0.172
42.705,0.159
42.710,0.149
42.715,0.149
42.720,0.139
42.725,0.133
42.730,0.132
42.735,0.123
42.740,0.122
42.745,0.113
42.750,0.105
42.755,0.101
42.760,0.088
42.765,0.082
42.770,0.075
42.775,0.069
42.780,0.065
42.785,0.058
42.790,0.060
42.795,0.053
42.800,0.046
42.805,0.043
42.810,0.034
42.815,0.031
42.820,0.024
42.825,0.016
42.830,0.012
42.835,0.006
42.840,0.006
42.845,-0.002
42.850,-0.007
42.855,-0.012
42.860,-0.023
42.865,-0.026
42.870,-0.033
42.875,-0.040
42.880,-0.045
42.885,-0.050
42.890,-0.051
42.895,-0.064
42.900,-0.078
42.905,-0.085
42.910,-0.090
42.915,-0.078
42.920,-0.070
42.925,-0.055
42.930,-0.033
42.935,-0.013
42.940,0.013
42.945,0.031
42.950,0.051
42.955,0.070
42.960,0.075
42.965,0.085
42.970,0.092
42.975,0.093
42.980,0.090
42.985,0.086
42.990,0.089
42.995,0.082
43.000,0.077
43.005,0.077
43.010,0.068
43.015,0.066
43.020,0.055
43.025,0.047
43.030,0.046
43.035,0.042
43.040,0.042
43.045,0.033
43.050,0.030
43.055,0.031
43.060,0.024
43.065,0.023
43.070,0.021
43.075,0.021
43.080,0.018
43.085,0.009
43.090,0.007
43.095,-0.004
43.100,-0.008
43.105,-0.006
43.110,-0.010
43.115,-0.003
43.120,0.000
43.125,0.003
43.130,0.006
43.135,0.002
43.140,0.007
43.145,0.000
43.150,-0.006
43.155,-0.005
43.160,-0.009
43.165,-0.002
43.170,0.000
43.175,-0.002
43.180,-0.006
43.185,-0.015
43.190,-0.013
43.195,-0.014
43.200,-0.009
43.205,-0.004
43.210,-0.011
43.215,-0.013
43.220,-0.019
43.225,-0.019
43.230,-0.018
43.235,-0.022
43.240,-0.017
43.245,-0.017
43.250,-0.007
43.255,0.000
43.260,-0.011
43.265,-0.013
43.270,-0.018
43.275,-0.015
43.280,-0.012
43.285,-0.015
43.290,-0.011
43.295,-0.020
43.300,-0.028
43.305,-0.030
43.310,-0.033
43.315,-0.026
43.320,-0.026
43.325,-0.023
43.330,-0.021
43.335,-0.025
43.340,-0.025
43.345,-0.035
43.350,-0.035
43.355,-0.028
43.360,-0.025
43.365,-0.021
43.370,-0.028
43.375,-0.034
43.380,-0.044
43.385,-0.059
43.390,-0.070
43.395,-0.092
43.400,-0.098
43.405,-0.086
43.410,-0.079
43.415,-0.098
43.420,-0.143
43.425,-0.145
43.430,-0.104
43.435,-0.059
43.440,-0.030
43.445,-0.029
43.450,-0.024
43.455,-0.020
43.460,-0.011
43.465,0.033
43.470,0.065
43.475,0.073
43.480,0.062
43.485,0.049
43.490,0.055
43.495,0.048
43.500,0.045
43.505,0.047
43.510,0.038
43.515,0.038
43.520,0.040
43.525,0.040
43.530,0.031
43.535,0.017
43.540,0.008
43.545,-0.007
43.550,-0.004
43.555,0.005
43.560,0.013
43.565,0.017
43.570,-0.058
43.575,-0.239
43.580,-0.565
43.585,-1.032
43.590,-1.456
43.595,-1.477
43.600,-0.978
43.605,-0.311
43.610,0.276
43.615,0.611
43.620,0.641
43.625,0.525
43.630,0.324
43.635,0.199
43.640,0.218
43.645,0.210
43.650,0.189
43.655,0.199
43.660,0.191
43.665,0.177
43.670,0.175
43.675,0.183
43.680,0.181
43.685,0.168
43.690,0.166
43.695,0.146
43.700,0.125
43.705,0.115
43.710,0.100
43.715,0.103
43.720,0.105
43.725,0.105
43.730,0.106
43.735,0.102
43.740,0.100
43.745,0.088
43.750,0.083
43.755,0.082
43.760,0.066
43.765,0.051
43.770,0.041
43.775,0.047
43.780,0.056
43.785,0.054
43.790,0.048
43.795,0.032
43.800,0.026
43.805,0.023
43.810,0.013
43.815,0.009
43.820,0.004
43.825,0.004
43.830,-0.003
43.835,-0.017
43.840,-0.018
43.845,-0.025
43.850,-0.025
43.855,-0.023
43.860,-0.031
43.865,-0.037
43.870,-0.049
43.875,-0.060
43.880,-0.064
43.885,-0.071
43.890,-0.078
43.895,-0.081
43.900,-0.061
43.905,-0.038
43.910,-0.027
43.915,-0.007
43.920,0.012
43.925,0.040
43.930,0.063
43.935,0.077
43.940,0.092
43.945,0.086
43.950,0.088
43.955,0.096
43.960,0.094
43.965,0.090
43.970,0.075
43.975,0.065
43.980,0.060
43.985,0.062
43.990,0.076
43.995,0.069
44.000,0.061
44.005,0.059
44.010,0.052
44.015,0.050
44.020,0.038
44.025,0.033
44.030,0.035
44.035,0.036
44.040,0.038
44.045,0.024
44.050,0.023
44.055,0.024
44.060,0.013
44.065,0.008
44.070,-0.005
44.075,-0.001
44.080,0.007
44.085,0.009
44.090,0.014
44.095,0.005
44.100,0.006
44.105,0.012
44.110,0.009
44.115,0.006
44.120,-0.008
44.125,-0.010
44.130,-0.003
44.135,0.001
44.140,0.006
44.145,-0.002
44.150,-0.001
44.155,0.009
44.160,0.009
44.165,0.011
44.170,0.004
44.175,-0.003
44.180,-0.019
44.185,-0.027
44.190,-0.011
44.195,0.002
44.200,0.012
44.205,0.006
44.210,-0.005
44.215,0.003
44.220,0.001
44.225,-0.001
44.230,-0.004
44.235,-0.007
44.240,0.000
44.245,-0.005
44.250,-0.008
44.255,-0.013
44.260,-0.025
44.265,-0.027
44.270,-0.031
44.275,-0.036
44.280,-0.051
44.285,-0.068
44.290,-0.079
44.295,-0.098
44.300,-0.100
44.305,-0.083
44.310,-0.074
44.315,-0.105
44.320,-0.147
44.325,-0.137
44.330,-0.097
44.335,-0.059
44.340,-0.031
44.345,-0.027
44.350,-0.018
44.355,-0.018
44.360,-0.013
44.365,0.024
44.370,0.052
44.375,0.059
44.380,0.052
44.385,0.050
44.390,0.058
44.395,0.047
44.400,0.046
44.405,0.047
44.410,0.036
44.415,0.034
44.420,0.030
44.425,0.024
44.430,0.010
44.435,0.001
44.440,0.005
44.445,0.001
44.450,0.004
44.455,0.012
44.460,0.027
44.465,0.022
44.470,-0.080
44.475,-0.299
44.480,-0.679
44.485,-1.183
44.490,-1.550
44.495,-1.437
44.500,-0.853
44.505,-0.173
44.510,0.379
44.515,0.636
44.520,0.618
44.525,0.489
44.530,0.294
44.535,0.202
44.540,0.216
44.545,0.193
44.550,0.186
44.555,0.202
44.560,0.192
44.565,0.183
44.570,0.177
44.575,0.165
44.580,0.142
44.585,0.133
44.590,0.140
44.595,0.128
44.600,0.125
44.605,0.122
44.610,0.106
44.615,0.102
44.620,0.096
44.625,0.096
44.630,0.095
44.635,0.087
44.640,0.086
44.645,0.075
44.650,0.069
44.655,0.063
44.660,0.054
44.665,0.053
44.670,0.047
44.675,0.045
44.680,0.038
44.685,0.033
44.690,0.038
44.695,0.028
44.700,0.020
44.705,0.011
44.710,-0.001
44.715,0.000
44.720,-0.007
44.725,-0.012
44.730,-0.017
44.735,-0.021
44.740,-0.019
44.745,-0.033
44.750,-0.039
44.755,-0.045
44.760,-0.056
44.765,-0.056
44.770,-0.063
44.775,-0.067
44.780,-0.076
44.785,-0.086
44.790,-0.082
44.795,-0.080
44.800,-0.063
44.805,-0.039
44.810,-0.017
44.815,0.009
44.820,0.030
44.825,0.058
44.830,0.076
44.835,0.083
44.840,0.093
44.845,0.091
44.850,0.093
44.855,0.093
44.860,0.090
44.865,0.092
44.870,0.088
44.875,0.088
44.880,0.083
44.885,0.077
44.890,0.073
44.895,0.058
44.900,0.053
44.905,0.053
44.910,0.045
44.915,0.040
44.920,0.031
44.925,0.032
44.930,0.032
44.935,0.028
44.940,0.024
44.945,0.010
44.950,0.011
44.955,0.018
44.960,0.017
44.965,0.018
44.970,0.011
44.975,0.014
44.980,0.012
44.985,0.005
44.990,0.005
44.995,-0.004
45.000,-0.004
45.005,0.001
45.010,-0.003
45.015,-0.002
45.020,-0.003
45.025,0.000
45.030,-0.001
45.035,-0.001
45.040,0.004
45.045,-0.003
45.050,-0.003
45.055,-0.004
45.060,-0.006
45.065,-0.002
45.070,-0.008
45.075,-0.007
45.080,-0.008
45.085,-0.012
45.090,-0.011
45.095,-0.017
45.100,-0.013
45.105,-0.011
45.110,-0.013
45.115,-0.012
45.120,-0.018
45.125,-0.016
45.130,-0.017
45.135,-0.016
45.140,-0.011
45.145,-0.017
45.150,-0.015
45.155,-0.018
45.160,-0.025
45.165,-0.025
45.170,-0.029
45.175,-0.027
45.180,-0.029
45.185,-0.032
45.190,-0.037
45.195,-0.061
45.200,-0.083
45.205,-0.099
45.210,-0.103
45.215,-0.089
45.220,-0.070
45.225,-0.070
45.230,-0.121
45.235,-0.158
45.240,-0.135
45.245,-0.095
45.250,-0.051
45.255,-0.026
45.260,-0.017
45.265,-0.007
45.270,-0.016
45.275,-0.004
45.280,0.031
45.285,0.056
45.290,0.064
45.295,0.053
45.300,0.053
45.305,0.053
45.310,0.051
45.315,0.053
45.320,0.044
45.325,0.037
45.330,0.027
45.335,0.026
45.340,0.027
45.345,0.017
45.350,0.018
45.355,0.014
45.360,0.008
45.365,0.008
45.370,0.008
45.375,0.017
45.380,-0.020
45.385,-0.138
45.390,-0.358
45.395,-0.737
45.400,-1.218
45.405,-1.542
45.410,-1.363
45.415,-0.766
45.420,-0.109
45.425,0.420
45.430,0.637
45.435,0.584
45.440,0.420
45.445,0.239
45.450,0.197
45.455,0.227
45.460,0.208
45.465,0.198
45.470,0.205
45.475,0.190
45.480,0.166
45.485,0.168
